UniprotID	Q9BVP2
Accession	Q9BVP2;B2RDC1;Q5PU80;Q96SV6;Q96SV7;Q9UJY0
EntryName	GNL3_HUMAN
ProteinName	Guanine nucleotide-binding protein-like 3 (E2-induced gene 3 protein) (Novel nucleolar protein 47) (NNP47) (Nucleolar GTP-binding protein 3) (Nucleostemin)
GeneName	GNL3 E2IG3 NS
Length	549
Function	May be required to maintain the proliferative capacity of stem cells. Stabilizes MDM2 by preventing its ubiquitination, and hence proteasomal degradation (By similarity).
Subcellular Location	Nucleus; Nucleus; Nucleolus
Disorder	0.9230,0.9249,0.9230,0.9211,0.8375,0.8741,0.8792,0.8853,0.8162,0.8279,0.7718,0.7799,0.7755,0.7718,0.6906,0.6948,0.7250,0.7547,0.7799,0.7951,0.7951,0.7369,0.7415,0.7459,0.7250,0.7982,0.7755,0.7755,0.7755,0.8462,0.8655,0.9057,0.9013,0.9126,0.9151,0.9381,0.9287,0.9503,0.9346,0.8872,0.8991,0.9057,0.9329,0.9211,0.9329,0.8942,0.9013,0.8894,0.8765,0.8279,0.7755,0.7505,0.7331,0.7120,0.6620,0.5807,0.5854,0.5901,0.5665,0.5707,0.5665,0.5211,0.4901,0.4369,0.4507,0.4256,0.5139,0.5139,0.5296,0.4831,0.5342,0.5992,0.5992,0.6136,0.6227,0.5620,0.6183,0.6183,0.6136,0.6136,0.6089,0.5992,0.6043,0.6183,0.7080,0.7369,0.7289,0.6322,0.6269,0.6620,0.7289,0.7505,0.6755,0.6620,0.6948,0.6948,0.7547,0.7629,0.7547,0.6427,0.6375,0.5577,0.5211,0.5296,0.5296,0.5055,0.4940,0.4940,0.5533,0.5493,0.5176,0.5211,0.5017,0.5665,0.5951,0.5620,0.5707,0.5807,0.5098,0.4441,0.4507,0.4541,0.5098,0.5456,0.5419,0.5382,0.4864,0.4017,0.3983,0.3948,0.3948,0.3983,0.3426,0.2884,0.2224,0.2094,0.1583,0.1137,0.1184,0.1424,0.1969,0.2783,0.3019,0.2399,0.2988,0.2094,0.2094,0.1731,0.2645,0.2680,0.2258,0.2258,0.2224,0.2541,0.2328,0.2364,0.2399,0.2918,0.3529,0.3460,0.3631,0.3599,0.2884,0.2034,0.2034,0.1424,0.1643,0.1731,0.2541,0.2224,0.2258,0.2164,0.1671,0.1914,0.2064,0.2817,0.3460,0.2752,0.2817,0.2783,0.2034,0.1501,0.1583,0.1476,0.1373,0.1881,0.2541,0.3215,0.2399,0.2715,0.2783,0.2129,0.2164,0.1791,0.1611,0.1424,0.1373,0.1298,0.1852,0.2064,0.2064,0.2884,0.3529,0.3426,0.4220,0.4087,0.4119,0.4119,0.4149,0.4186,0.3910,0.3566,0.4186,0.4801,0.6089,0.5620,0.5577,0.5992,0.4725,0.4766,0.4441,0.4541,0.3774,0.2988,0.1969,0.1969,0.2783,0.2849,0.2849,0.2034,0.1852,0.1852,0.1449,0.0929,0.0929,0.0870,0.0543,0.0690,0.0605,0.1206,0.0704,0.0719,0.0690,0.0851,0.0835,0.1554,0.1092,0.1092,0.0676,0.0389,0.0646,0.0555,0.0662,0.1184,0.1251,0.1251,0.1251,0.2064,0.1969,0.1184,0.0676,0.1206,0.1184,0.0719,0.0870,0.1476,0.1501,0.2129,0.1881,0.1823,0.2783,0.2129,0.3182,0.2258,0.2129,0.2503,0.2503,0.1731,0.1823,0.1942,0.2783,0.3356,0.3286,0.2680,0.2849,0.3117,0.2224,0.2258,0.2224,0.2575,0.2436,0.2364,0.2164,0.1424,0.2064,0.2064,0.2645,0.2609,0.2364,0.1554,0.1048,0.1048,0.1449,0.0870,0.1349,0.1852,0.1583,0.2258,0.1881,0.1206,0.0967,0.0985,0.0985,0.1554,0.2575,0.2164,0.2129,0.1206,0.1349,0.1643,0.1759,0.2328,0.2645,0.2002,0.2988,0.2575,0.2292,0.2292,0.2064,0.1554,0.1583,0.1823,0.2680,0.2328,0.2541,0.1969,0.2328,0.2470,0.2715,0.1942,0.1823,0.2470,0.1611,0.1476,0.1251,0.1323,0.1554,0.1115,0.1162,0.1476,0.2193,0.2193,0.2436,0.1424,0.0929,0.0888,0.0719,0.0414,0.0327,0.0518,0.0799,0.1323,0.1323,0.1791,0.1759,0.2503,0.2224,0.2258,0.3215,0.2328,0.2470,0.2645,0.2817,0.2783,0.3872,0.4725,0.4369,0.5055,0.5098,0.4652,0.3599,0.3566,0.3667,0.2715,0.3149,0.3117,0.2817,0.2817,0.2064,0.1852,0.1914,0.1092,0.0704,0.1092,0.1184,0.1349,0.1611,0.1823,0.1137,0.1759,0.2715,0.3983,0.4292,0.3356,0.3426,0.3460,0.3599,0.3840,0.3117,0.3321,0.3019,0.3948,0.4507,0.5055,0.4979,0.4685,0.3494,0.3566,0.2918,0.4051,0.4119,0.3182,0.3053,0.2645,0.3529,0.4582,0.4220,0.4186,0.4186,0.4220,0.4685,0.5055,0.4220,0.4330,0.4476,0.4831,0.4801,0.5055,0.4725,0.5577,0.5342,0.4476,0.4507,0.3426,0.3631,0.3529,0.3392,0.3631,0.2884,0.2951,0.3740,0.3872,0.3426,0.3460,0.3774,0.3910,0.3460,0.3599,0.3631,0.3872,0.3948,0.4149,0.4149,0.5176,0.6089,0.5707,0.5533,0.5854,0.5620,0.6269,0.6427,0.6576,0.6755,0.7415,0.8375,0.8343,0.8279,0.8235,0.8279,0.8828,0.8894,0.8872,0.8872,0.9308,0.8765,0.8991,0.9211,0.9396,0.8966,0.9151,0.9362,0.9346,0.9230,0.9106,0.9230,0.9013,0.8198,0.7916,0.7916,0.7982,0.8198,0.8085,0.8013,0.8013,0.7799,0.7672,0.7505,0.7505,0.7505,0.8125,0.8013,0.7629,0.7595,0.7799,0.7951,0.7881,0.8085,0.8713,0.8853,0.8313,0.7547,0.6576,0.6712,0.6375,0.5419,0.4979,0.5951,0.6183,0.6089,0.6043,0.5807,0.5055,0.5382,0.4507,0.4330,0.4256,0.4409,0.3807,0.3529,0.3286,0.3840,0.4220,0.4725,0.4330,0.4369,0.4901,0.5665,0.5055,0.4409
ExposeBuried	1,1,1,1,1,0,1,1,0,1,1,1,0,1,0,1,1,1,0,1,0,1,1,1,0,1,1,1,0,1,1,0,1,1,1,1,1,1,1,1,1,1,1,1,1,1,1,1,1,1,1,1,0,0,1,1,1,1,0,1,0,1,1,0,1,1,1,1,1,0,0,1,1,0,1,1,1,1,1,0,1,1,1,1,1,1,1,1,1,1,1,1,1,1,0,1,1,0,1,1,1,1,1,1,1,1,1,1,1,1,0,0,1,1,1,1,1,0,1,1,0,1,1,1,1,1,1,1,0,0,0,1,1,0,0,1,0,0,1,1,0,1,0,0,0,0,0,0,1,0,1,0,0,0,1,0,0,0,1,1,0,0,1,0,0,1,1,1,1,1,1,1,0,0,0,0,0,0,1,0,1,0,0,1,1,1,0,0,1,1,0,0,1,0,0,1,1,1,0,1,1,0,0,0,0,0,0,0,1,1,1,1,1,1,1,1,1,1,1,0,1,1,1,1,1,1,1,1,1,1,0,1,1,1,0,1,1,1,1,0,0,1,1,0,1,1,0,1,1,0,1,1,1,1,0,0,0,0,0,0,0,0,0,1,0,0,1,1,1,0,0,1,0,0,1,1,1,1,1,0,1,0,0,1,1,1,1,1,0,1,0,0,0,1,0,0,0,1,1,1,0,0,0,0,0,0,0,0,0,0,0,0,1,1,1,1,1,1,1,1,1,0,1,1,0,0,1,0,1,1,0,1,1,1,1,0,0,1,0,0,0,1,1,0,1,1,1,1,0,0,1,1,0,1,0,1,1,0,1,1,0,1,1,0,0,1,0,0,0,1,1,1,1,1,1,1,1,1,1,1,1,1,0,1,1,0,0,1,1,0,0,1,0,0,1,1,0,1,0,0,0,0,0,1,0,0,1,1,1,1,0,0,1,0,1,1,1,1,0,0,1,1,0,1,1,1,0,1,1,1,1,0,1,1,1,1,1,1,1,1,1,0,1,1,0,1,1,0,0,1,1,0,0,0,1,1,1,0,0,1,1,1,0,0,1,1,1,1,0,1,1,1,0,1,1,1,1,1,1,1,1,1,1,1,1,1,1,1,1,1,1,1,1,1,0,1,1,1,0,1,1,1,1,1,0,0,0,0,0,1,1,0,0,1,1,0,1,1,1,0,1,1,1,1,1,1,0,1,1,0,0,0,1,1,0,0,1,1,1,1,1,0,1,0,1,1,1,1,1
SurfaceAccessbility	0.845,0.685,0.508,0.481,0.570,0.167,0.540,0.573,0.279,0.472,0.555,0.457,0.244,0.374,0.142,0.373,0.503,0.401,0.243,0.500,0.113,0.360,0.513,0.448,0.099,0.413,0.442,0.320,0.158,0.634,0.575,0.157,0.477,0.639,0.603,0.293,0.497,0.596,0.555,0.547,0.463,0.485,0.320,0.366,0.547,0.677,0.298,0.450,0.527,0.344,0.525,0.353,0.274,0.239,0.483,0.311,0.405,0.613,0.265,0.530,0.269,0.409,0.601,0.278,0.650,0.315,0.356,0.510,0.573,0.175,0.188,0.567,0.498,0.119,0.541,0.624,0.442,0.528,0.575,0.201,0.509,0.567,0.448,0.528,0.579,0.470,0.539,0.560,0.602,0.477,0.454,0.278,0.681,0.339,0.242,0.581,0.619,0.168,0.315,0.449,0.652,0.540,0.328,0.615,0.393,0.313,0.473,0.517,0.607,0.407,0.192,0.247,0.484,0.312,0.332,0.568,0.402,0.163,0.572,0.504,0.177,0.566,0.686,0.562,0.319,0.400,0.349,0.315,0.188,0.171,0.085,0.481,0.384,0.032,0.232,0.476,0.077,0.059,0.548,0.300,0.169,0.357,0.050,0.058,0.052,0.182,0.046,0.156,0.286,0.173,0.400,0.266,0.264,0.183,0.317,0.296,0.300,0.151,0.484,0.389,0.045,0.259,0.450,0.142,0.048,0.434,0.688,0.446,0.516,0.483,0.320,0.356,0.074,0.029,0.034,0.033,0.029,0.147,0.326,0.169,0.470,0.152,0.174,0.381,0.491,0.607,0.257,0.165,0.563,0.393,0.039,0.157,0.555,0.194,0.043,0.516,0.655,0.473,0.147,0.284,0.363,0.040,0.063,0.050,0.218,0.223,0.139,0.237,0.559,0.476,0.690,0.605,0.314,0.578,0.468,0.432,0.373,0.600,0.452,0.276,0.477,0.538,0.494,0.496,0.495,0.420,0.553,0.398,0.376,0.463,0.315,0.448,0.418,0.268,0.199,0.355,0.409,0.498,0.401,0.108,0.137,0.497,0.289,0.093,0.477,0.530,0.175,0.409,0.567,0.154,0.334,0.595,0.475,0.343,0.070,0.205,0.028,0.035,0.029,0.043,0.051,0.133,0.161,0.379,0.166,0.258,0.365,0.351,0.346,0.177,0.123,0.372,0.309,0.151,0.457,0.619,0.502,0.517,0.292,0.117,0.398,0.130,0.270,0.454,0.484,0.413,0.408,0.334,0.257,0.355,0.269,0.149,0.207,0.355,0.140,0.288,0.185,0.416,0.505,0.348,0.086,0.204,0.098,0.067,0.270,0.105,0.262,0.244,0.181,0.210,0.230,0.248,0.470,0.349,0.402,0.411,0.646,0.437,0.323,0.323,0.333,0.168,0.541,0.343,0.181,0.187,0.372,0.096,0.501,0.462,0.116,0.487,0.518,0.425,0.416,0.201,0.098,0.331,0.230,0.062,0.102,0.405,0.439,0.217,0.346,0.279,0.495,0.392,0.075,0.134,0.604,0.439,0.179,0.636,0.150,0.597,0.488,0.196,0.583,0.398,0.058,0.390,0.489,0.056,0.046,0.440,0.221,0.088,0.099,0.426,0.422,0.361,0.409,0.382,0.445,0.477,0.577,0.485,0.594,0.429,0.458,0.613,0.227,0.524,0.434,0.082,0.048,0.442,0.314,0.054,0.058,0.491,0.273,0.091,0.344,0.578,0.256,0.378,0.082,0.194,0.062,0.165,0.066,0.314,0.129,0.201,0.537,0.727,0.504,0.421,0.261,0.189,0.431,0.309,0.353,0.439,0.438,0.603,0.215,0.208,0.419,0.480,0.104,0.537,0.743,0.604,0.170,0.608,0.290,0.705,0.507,0.133,0.498,0.587,0.423,0.317,0.554,0.643,0.429,0.352,0.607,0.217,0.305,0.586,0.196,0.572,0.468,0.091,0.174,0.479,0.363,0.180,0.153,0.166,0.311,0.440,0.542,0.288,0.143,0.368,0.542,0.320,0.188,0.147,0.557,0.496,0.516,0.494,0.120,0.285,0.661,0.571,0.121,0.407,0.649,0.432,0.505,0.677,0.506,0.492,0.554,0.621,0.577,0.467,0.619,0.598,0.540,0.630,0.556,0.505,0.529,0.513,0.635,0.363,0.142,0.455,0.662,0.508,0.131,0.491,0.682,0.570,0.404,0.526,0.284,0.251,0.170,0.220,0.163,0.532,0.529,0.280,0.265,0.622,0.313,0.137,0.451,0.641,0.512,0.294,0.418,0.405,0.402,0.517,0.506,0.376,0.257,0.309,0.380,0.205,0.100,0.115,0.405,0.391,0.082,0.108,0.574,0.572,0.496,0.489,0.321,0.258,0.457,0.166,0.506,0.455,0.584,0.335,0.727
SecondStructure	C,C,C,C,C,A,A,A,A,A,A,A,C,C,A,A,A,A,A,A,A,A,A,A,A,A,A,A,A,A,A,A,A,A,A,A,A,A,A,C,A,C,C,C,C,C,C,C,C,C,C,C,C,C,C,C,C,C,C,C,C,C,C,C,C,C,C,C,A,A,A,A,A,A,A,A,A,A,A,A,A,A,A,A,A,A,A,A,A,C,C,C,C,C,C,C,C,C,C,C,C,C,C,C,C,A,A,A,A,A,A,A,A,A,A,A,A,A,A,A,A,A,A,A,A,A,A,A,A,A,A,A,A,A,A,A,A,A,A,A,C,C,B,B,B,B,B,B,C,C,C,C,C,C,C,C,C,C,A,A,A,A,A,A,A,A,A,C,C,C,C,C,B,B,B,B,B,B,C,C,C,C,C,C,A,A,A,A,A,A,A,A,A,A,A,A,A,A,C,C,B,B,B,B,B,B,C,C,C,C,C,C,C,C,C,C,C,C,C,A,A,A,A,C,C,C,C,C,C,C,A,A,A,A,A,C,A,A,A,A,A,A,A,A,A,C,C,C,C,C,C,C,C,C,B,B,B,B,B,B,B,C,C,C,C,C,C,A,A,A,A,A,A,A,C,C,C,C,B,B,B,B,C,C,C,C,C,C,C,C,B,B,B,B,B,C,C,C,C,C,C,B,B,B,C,C,C,C,C,C,C,C,C,C,C,C,C,C,C,A,A,C,C,C,C,B,B,B,C,C,C,C,C,C,C,A,A,A,A,A,A,A,A,C,C,A,A,A,A,A,A,A,C,C,C,C,C,C,C,C,A,A,A,A,A,A,A,A,A,A,A,A,C,C,C,C,C,C,C,C,C,C,A,A,A,A,A,A,A,A,A,A,A,A,A,C,C,C,B,B,B,B,B,C,C,C,C,C,C,C,C,C,C,C,C,C,A,A,A,A,A,A,A,A,A,C,C,C,A,A,A,A,A,A,A,A,A,A,C,C,C,C,C,C,C,C,C,A,A,A,A,A,A,A,A,C,C,C,C,C,C,C,C,C,C,C,C,A,A,A,A,A,A,C,A,A,A,A,A,A,A,A,A,A,C,C,C,C,C,C,C,A,A,A,A,A,A,A,A,C,C,C,C,C,C,C,B,A,A,A,A,A,A,A,A,A,A,A,A,A,C,C,C,C,C,C,A,A,A,A,A,A,A,A,A,A,C,C,C,C,C,C,C,C,C,C,C,C,C
Hydropathy	1.9,-3.9,-4.5,-1.6,-3.9,3.8,-3.9,-3.9,1.8,-0.8,-3.9,-4.5,1.9,-0.7,2.5,-3.2,-3.9,-4.5,-1.3,-3.9,4.5,-3.5,-3.9,-3.9,4.2,-4.5,-3.5,-3.2,-3.2,-4.5,-3.9,3.8,-4.5,-3.9,-3.5,1.8,-3.9,-3.9,-4.5,-0.4,-3.2,-3.9,-3.9,-1.6,-4.5,-3.9,-3.5,-1.6,-0.4,4.2,-1.6,-3.5,-0.8,1.8,-1.6,2.8,-3.9,-3.5,1.8,3.8,3.8,-4.5,-3.5,1.8,-3.5,3.8,-4.5,-3.9,-3.5,-4.5,3.8,-3.5,-3.5,3.8,-3.9,-3.5,-3.5,-3.5,-3.9,3.8,-3.5,-4.5,-3.5,-3.9,-3.5,3.8,-3.5,-3.9,-3.9,-4.5,-3.9,3.8,-3.5,-0.7,-3.5,-1.6,-3.5,4.5,-3.9,-1.6,-0.8,-3.5,4.2,-3.5,-1.6,1.9,-3.5,-3.9,-3.5,2.8,-0.4,3.8,2.5,-3.9,-0.7,-3.5,-3.5,-3.9,1.8,-3.9,-0.8,-0.4,-3.9,-3.5,-3.5,-0.8,-3.9,-3.9,3.8,-1.3,2.5,-3.5,-3.5,3.8,-3.9,-3.9,4.2,4.5,-3.5,1.8,-0.8,-3.5,4.2,4.2,3.8,-3.5,4.2,3.8,-3.5,1.8,-4.5,-3.5,-1.6,3.8,-0.4,2.5,-4.5,2.5,-1.6,-3.5,4.2,-3.5,-3.5,1.8,4.5,4.2,-3.5,-0.8,-0.4,-3.5,-3.9,-3.9,3.8,4.2,3.8,4.5,3.8,-3.5,-3.9,-0.8,-3.5,3.8,4.2,-1.6,-3.9,-3.5,-3.5,3.8,-3.5,-0.8,-0.9,3.8,-3.5,-1.3,3.8,-3.9,-3.9,-3.5,3.8,-1.6,-0.7,4.2,4.2,2.8,-4.5,1.8,-0.8,-0.7,-3.9,-1.6,-3.9,-3.5,-3.9,-0.4,-3.9,4.5,-0.7,-3.9,-4.5,4.2,-3.9,1.8,-3.9,-3.9,-3.5,1.8,1.8,-1.6,2.8,-4.5,-0.8,-3.5,4.2,2.5,2.8,-0.4,-3.9,-3.5,-0.4,3.8,-0.9,-3.9,3.8,3.8,-0.4,-0.4,2.8,-3.5,-3.5,-0.7,2.5,-0.8,-3.9,1.8,4.5,-4.5,4.2,-0.4,4.2,4.5,-0.4,2.8,-1.6,-3.5,4.2,-0.4,-3.9,-0.8,-0.8,4.5,4.5,-3.5,-0.8,3.8,-3.9,-3.5,-3.5,-3.5,1.9,2.5,-3.5,4.2,-0.4,4.2,-0.8,1.9,-0.4,3.8,-0.7,-4.5,-0.8,1.9,-3.5,4.2,4.2,-1.6,3.8,-3.5,-3.9,-3.5,4.5,-0.7,4.5,4.5,-3.5,-0.8,-1.6,-0.8,2.8,4.5,4.2,-0.8,-1.6,3.8,-3.5,-0.8,-0.8,-0.8,1.8,3.8,1.8,3.8,-4.5,-0.8,-1.6,1.8,-0.8,4.5,-3.5,4.2,4.2,-3.9,-1.6,1.9,-3.5,1.8,1.8,-0.8,1.8,4.5,3.8,-0.8,-3.5,1.8,-3.5,1.8,-4.5,-3.5,4.2,4.2,3.8,-3.9,-1.3,-0.7,4.2,-1.6,-0.4,-1.3,-4.5,-3.5,-0.8,3.8,-3.5,2.8,2.8,-0.7,4.2,3.8,1.8,-3.5,-4.5,-4.5,-0.4,1.9,-3.2,-3.5,-3.9,-0.4,-0.4,4.5,-1.6,-3.5,4.2,-3.5,-0.4,1.8,1.8,-3.9,3.8,3.8,-0.9,-0.8,-3.5,-0.9,-0.7,-0.4,1.8,-0.8,3.8,1.8,-1.3,-1.3,2.5,-3.2,-1.6,-1.6,-0.7,-0.8,-0.9,-0.7,-1.6,-1.6,-1.6,-1.3,2.8,-3.5,-3.5,-0.8,4.5,4.2,4.2,-3.5,1.9,-3.9,-0.8,-0.4,2.8,-3.5,3.8,-3.5,-3.5,3.8,-3.5,-3.9,-3.5,-3.5,1.8,-3.5,-0.8,4.5,-4.5,1.8,4.5,-3.9,-0.4,-1.6,-3.2,3.8,1.8,-3.5,-0.8,4.5,3.8,2.8,-3.5,-0.8,-0.8,-0.4,3.8,-0.7,-3.5,-0.4,4.5,4.5,-3.5,-3.5,-3.9,-3.5,4.5,-3.2,-3.5,-3.5,3.8,-1.6,-3.9,-4.5,-3.9,-3.5,-4.5,-3.9,-3.5,-3.5,-3.5,-4.5,-3.5,-3.5,-3.5,-3.9,-3.5,-0.8,-3.5,-3.5,-3.5,-0.7,4.2,-3.5,-3.5,-3.5,4.2,-3.5,-3.5,-3.5,-0.8,-0.8,-0.4,1.9,2.8,1.8,1.8,-3.5,-3.5,-0.7,-0.4,-3.5,1.8,3.8,-0.8,-3.5,-3.5,-0.7,-0.7,1.8,-0.4,-3.5,-3.5,-0.8,-0.7,-4.5,-0.8,2.8,4.5,3.8,-3.5,-3.9,4.5,4.5,-3.5,-3.5,-3.5,-3.5,1.8,-1.3,-3.5,2.8,-0.8,-0.7,-3.5,-1.3,4.2
Polar	0,1,1,0,1,0,1,1,0,1,1,1,0,1,0,1,1,1,1,1,0,1,1,1,0,1,1,1,1,1,1,0,1,1,1,0,1,1,1,1,1,1,1,0,1,1,1,0,1,0,0,1,1,0,0,1,1,1,0,0,0,1,1,0,1,0,1,1,1,1,0,1,1,0,1,1,1,1,1,0,1,1,1,1,1,0,1,1,1,1,1,0,1,1,1,0,1,0,1,0,1,1,0,1,0,0,1,1,1,1,1,0,0,1,1,1,1,1,0,1,1,1,1,1,1,1,1,1,0,1,0,1,1,0,1,1,0,0,1,0,1,1,0,0,0,1,0,0,1,0,1,1,0,0,1,0,1,0,0,1,0,1,1,0,0,0,1,1,1,1,1,1,0,0,0,0,0,1,1,1,1,0,0,0,1,1,1,0,1,1,0,0,1,1,0,1,1,1,0,0,1,0,0,1,1,0,1,1,1,0,1,1,1,1,1,0,1,1,1,0,1,0,1,1,1,0,0,0,1,1,1,1,0,0,1,1,1,1,1,0,0,1,0,0,1,1,1,1,1,1,0,1,1,0,0,1,0,1,0,0,1,1,0,1,0,1,1,1,1,0,0,1,1,0,1,1,1,1,0,0,1,0,1,0,1,0,1,0,1,1,1,0,1,0,0,0,0,1,1,1,0,1,0,0,1,1,0,1,1,0,0,1,0,0,1,1,1,1,0,0,0,0,1,1,0,0,1,0,1,0,0,1,0,0,1,0,0,1,0,0,0,1,1,0,1,0,1,1,0,0,0,1,1,1,0,0,1,1,1,1,1,0,1,1,1,1,0,0,0,1,1,1,1,0,1,1,1,1,1,0,0,1,0,1,1,0,0,1,0,0,0,1,1,0,1,1,0,1,0,0,1,1,0,1,0,0,1,1,0,1,0,0,0,1,1,1,1,1,0,0,0,1,0,1,1,1,1,1,0,1,1,0,1,1,1,1,0,1,1,0,1,0,0,1,1,0,1,0,0,1,1,0,0,1,1,1,1,1,0,1,1,1,0,0,1,1,1,1,0,1,1,1,0,0,1,1,1,1,1,1,1,1,1,1,1,1,1,1,1,1,1,1,1,1,0,1,1,1,0,1,1,1,1,1,1,0,1,0,0,1,1,1,1,1,0,0,1,1,1,1,1,0,1,1,1,1,1,1,1,1,0,0,1,1,0,0,1,1,1,1,0,1,1,1,1,1,1,1,0
Charge	0,1,1,0,1,0,1,1,0,0,1,1,0,0,0,1,1,1,0,1,0,0,1,1,0,1,-1,1,1,1,1,0,1,1,-1,0,1,1,1,0,1,1,1,0,1,1,-1,0,0,0,0,0,0,0,0,0,1,-1,0,0,0,1,-1,0,-1,0,1,1,0,1,0,-1,-1,0,1,0,0,0,1,0,-1,1,0,1,-1,0,-1,1,1,1,1,0,-1,0,0,0,-1,0,1,0,0,0,0,-1,0,0,-1,1,-1,0,0,0,0,1,0,-1,0,1,0,1,0,0,1,0,0,0,1,1,0,0,0,0,-1,0,1,1,0,0,-1,0,0,-1,0,0,0,-1,0,0,-1,0,1,-1,0,0,0,0,1,0,0,0,0,-1,-1,0,0,0,0,0,0,0,1,1,0,0,0,0,0,0,1,0,-1,0,0,0,1,-1,0,0,-1,0,0,0,0,0,0,1,1,-1,0,0,0,0,0,0,1,0,0,0,1,0,1,-1,1,0,1,0,0,1,1,0,1,0,1,1,0,0,0,0,0,1,0,-1,0,0,0,0,1,-1,0,0,0,1,0,0,0,0,0,0,-1,0,0,0,1,0,0,1,0,0,0,0,0,0,0,0,0,0,1,0,0,0,0,0,0,0,1,0,-1,0,0,0,0,0,0,0,0,0,0,0,0,1,0,0,0,0,0,0,0,-1,1,0,0,0,0,0,-1,0,0,0,0,0,0,0,0,0,0,0,0,0,0,0,0,0,1,0,0,0,0,0,-1,0,0,1,0,0,-1,0,0,0,0,0,0,0,0,0,-1,0,1,0,0,0,0,1,0,0,0,0,0,0,1,0,0,0,-1,0,0,0,0,0,0,0,1,1,0,0,1,0,1,0,0,0,0,0,0,-1,0,0,0,1,0,0,0,0,-1,0,0,0,0,0,0,0,0,0,0,1,0,0,0,0,0,0,0,0,0,0,0,0,-1,0,0,0,0,-1,0,1,0,0,0,0,0,-1,-1,0,-1,1,0,0,0,0,0,0,1,0,0,1,0,0,1,0,0,0,0,0,0,0,0,0,0,0,0,0,0,0,0,0,-1,-1,1,-1,0,1,-1,-1,0,0,1,1,1,-1,1,1,0,-1,-1,1,-1,-1,-1,1,-1,0,-1,0,-1,0,0,-1,-1,-1,0,-1,-1,0,0,0,0,0,0,0,0,-1,-1,0,0,-1,0,0,0,-1,-1,0,0,0,0,-1,0,0,0,1,0,0,0,0,-1,1,0,0,-1,-1,-1,-1,0,0,-1,0,0,0,-1,0,0
UniprotNLSRegion	
UniprotNESRegion	
SeqNLSRegion	
SeqNLSPMID	
nlsdbnes_region	
nlsdbnls_region	37...41;88...93
validnes_region	
nesbase_region	
Sequence	MKRPKLKKASKRMTCHKRYKIQKKVREHHRKLRKEAKKRGHKKPRKDPGVPNSAPFKEALLREAELRKQRLEELKQQQKLDRQKELEKKRKLETNPDIKPSNVEPMEKEFGLCKTENKAKSGKQNSKKLYCQELKKVIEASDVVLEVLDARDPLGCRCPQVEEAIVQSGQKKLVLILNKSDLVPKENLESWLNYLKKELPTVVFRASTKPKDKGKITKRVKAKKNAAPFRSEVCFGKEGLWKLLGGFQETCSKAIRVGVIGFPNVGKSSIINSLKQEQMCNVGVSMGLTRSMQVVPLDKQITIIDSPSFIVSPLNSSSALALRSPASIEVVKPMEAASAILSQADARQVVLKYTVPGYRNSLEFFTVLAQRRGMHQKGGIPNVEGAAKLLWSEWTGASLAYYCHPPTSWTPPPYFNESIVVDMKSGFNLEELEKNNAQSIRAIKGPHLANSILFQSSGLTNGIIEEKDIHEELPKRKERKQEEREDDKDSDQETVDEEVDENSSGMFAAEETGEALSEETTAGEQSTRSFILDKIIEEDDAYDFSTDYV
PTM	Acetylation:17,46,57,108,114,128,135,196,237,242,253,332,352,377,434,467;Methylation:75,88,135,179,196,230,275,332,352,434,475,534;Phosphorylation:53,273,318,342,490,494,517,529,548;SUMOylation:57,91,99,108,114,135,136,171,172,179,185,196,224,237,242,253,267,275,332,377,434,444,467,534;Ubiquitylation:57,75,99,114,128,135,171,179,197,237,253,267,275,299,332,377,434
