UniprotID	A0A1W2PPG2
Accession	A0A1W2PPG2
EntryName	A0A1W2PPG2_HUMAN
ProteinName	STE20-related kinase adapter protein alpha (STE20-related adapter protein)
GeneName	STRADA
Length	343
Function	Pseudokinase which, in complex with CAB39/MO25 (CAB39/MO25alpha or CAB39L/MO25beta), binds to and activates STK11/LKB1. Adopts a closed conformation typical of active protein kinases and binds STK11/LKB1 as a pseudosubstrate, promoting conformational change of STK11/LKB1 in an active conformation.
Subcellular Location	Cytoplasm; Nucleus
Disorder	
ExposeBuried	
SurfaceAccessbility	
SecondStructure	
Hydropathy	
Polar	
Charge	
pNuLoCProb	0.32567
pNuLoCRegion	27...35;62...65
pNuLoCScore	0.21858512333333333,0.210709592,0.2042273836363636,0.19955458,0.19550421461538464,0.1895631117857143,0.18341502766666667,0.1779613221875,0.17568194147058824,0.1563604355882353,0.13864446735294117,0.1266486655882353,0.12424742558823526,0.12429703441176469,0.1233708432352941,0.125991869117647,0.1275386720588235,0.12734217323529412,0.12754328147058822,0.1283444044117647,0.12872714852941178,0.12927979382352942,0.13168412294117648,0.1356847364705882,0.1442777282352941,0.15150489411764706,0.16237780352941175,0.1727391588235294,0.1842009941176471,0.19466763764705886,0.2032177105882353,0.21117606705882355,0.21811427352941176,0.22479649352941178,0.23013780705882356,0.23613565764705882,0.24156044823529416,0.24695420294117648,0.2523302064705883,0.25834064176470595,0.26385119,0.2643178564705883,0.2635153005882354,0.260305261764706,0.2571641335294118,0.2542286676470588,0.2514239588235294,0.24965475705882353,0.24884655470588235,0.24919099647058823,0.24921780941176472,0.24981339235294117,0.2498150623529412,0.24997623529411767,0.24998528058823524,0.2504381917647059,0.2629776623529412,0.27323848411764706,0.28390414294117644,0.2911876323529412,0.29529453,0.30170153294117646,0.30836404941176476,0.3152090917647059,0.32208673117647063,0.3293451723529412,0.3359506011764706,0.34264149647058817,0.34891142588235297,0.3542951141176471,0.3588722982352941,0.36500593058823533,0.3714712888235294,0.3652337376470589,0.359784875882353,0.3545162476470588,0.3529396947058823,0.35407097823529415,0.3531723523529412,0.35151668411764714,0.35042813705882353,0.3484459035294118,0.34572855058823526,0.3438832952941176,0.3426089288235294,0.3417568841176471,0.34210509,0.3422513223529412,0.3379094517647059,0.33517436470588235,0.33215205588235297,0.3313539176470588,0.33001282647058827,0.32812497,0.326677265882353,0.3250402017647059,0.3244852335294117,0.3239273888235294,0.32322193823529405,0.32303636176470585,0.32299980529411765,0.3233328341176471,0.3242072317647059,0.3251128552941176,0.32698393058823527,0.3317792911764706,0.3338448617647059,0.3374626635294118,0.34006719470588237,0.34354134352941174,0.3475470876470588,0.35166573882352936,0.3558181629411764,0.35946457705882345,0.36249598352941176,0.36592259882352945,0.3690174735294117,0.3720819341176471,0.3748809105882353,0.37734058117647057,0.3846736058823529,0.3890806611764705,0.39326985411764703,0.39828424941176466,0.4007576123529411,0.4034515276470588,0.40596852117647053,0.40848942764705887,0.41094340176470595,0.4119751752941177,0.41252908117647064,0.41394240882352945,0.41619562882352945,0.41872411294117645,0.4209857588235294,0.4222822541176471,0.4232375058823529,0.4190427270588235,0.41749452294117645,0.4163935447058823,0.41416141058823525,0.41208244647058817,0.40881642411764707,0.40452051941176465,0.40067774882352936,0.39650216999999993,0.3931233847058823,0.38924438647058823,0.3852285811764706,0.38027892882352937,0.3740868888235294,0.3668922870588235,0.35036301529411773,0.33595429764705886,0.3215169200000001,0.30643623294117656,0.2929558429411765,0.27995637647058824,0.2687901570588235,0.25925257764705884,0.25130016294117646,0.24299108,0.2350662611764706,0.22726926,0.22029472176470585,0.21247455117647057,0.20517384647058826,0.19845849529411766,0.1933291994117647,0.19741059705882355,0.19914901588235295,0.20097456176470588,0.20360215176470586,0.20461176411764703,0.20567708294117645,0.2064957376470588,0.20634672941176466,0.20548150529411766,0.20451057176470588,0.2035650388235294,0.20292398411764703,0.20210130470588236,0.20149506058823527,0.20094024764705878,0.20124896411764703,0.2013051588235294,0.2030097811764706,0.2051584376470588,0.20672414941176473,0.20831731235294118,0.20992015000000006,0.21185231705882354,0.21332544529411768,0.21489689823529412,0.2159745582352941,0.21685105764705878,0.21734021999999997,0.21826435411764702,0.21944784705882353,0.22061219352941178,0.22160983,0.22187857588235294,0.22167595882352945,0.22078445411764708,0.21980207411764704,0.2192627088235294,0.2187644870588235,0.21825319117647055,0.21755003352941174,0.2169870594117647,0.21678109294117645,0.21691733352941173,0.21700289352941174,0.21735164352941172,0.21742657411764704,0.2171360147058823,0.21935733999999998,0.22137407588235292,0.22399615176470586,0.22662480999999995,0.22901034235294113,0.2313979188235294,0.23355802176470583,0.23606196588235295,0.23843479588235295,0.2407815952941176,0.24280424235294115,0.24423885470588236,0.24583087352941177,0.2474928329411765,0.24889675764705885,0.250046965882353,0.2513164152941177,0.2502443270588235,0.2491118023529412,0.2473911282352941,0.24576982176470588,0.24441837176470593,0.24312096941176473,0.2421670464705883,0.24057044705882358,0.23936534941176474,0.23855323,0.23806966529411766,0.23815613058823532,0.23840697882352946,0.23857267117647063,0.23885697294117647,0.2426777517647059,0.246091,0.24788344823529412,0.2502912252941176,0.2532437923529412,0.2556578829411765,0.2568709358823529,0.2581693288235294,0.2594510441176471,0.2610391247058823,0.2620732588235294,0.262400584117647,0.26256571117647054,0.2623043817647059,0.26223279529411764,0.2623530605882353,0.2626756205882353,0.2596406711764706,0.2570097605882353,0.2561203929411765,0.2549842417647059,0.25355273294117653,0.2525543623529412,0.25250633294117647,0.25251840941176473,0.2526121623529412,0.25269510470588236,0.25302079529411764,0.2536484147058824,0.25453533176470583,0.25574562588235294,0.2567201135294117,0.2600250176470588,0.2642253294117647,0.26675892705882354,0.26770470588235296,0.2685949694117647,0.2681627058823529,0.267876004117647,0.26752376529411764,0.2676808535294117,0.2671986423529411,0.26650686999999995,0.26550046882352935,0.26493274470588235,0.2645082017647059,0.2642584264705883,0.26415021294117647,0.2636492994117647,0.2609657947058823,0.2573977805882353,0.2556853982352941,0.25582118823529415,0.2559559323529412,0.25742883411764705,0.2585067205882353,0.2597572029411765,0.26070641058823535,0.26233272529411766,0.26404179294117647,0.26613165,0.26777038529411756,0.26914900529411756,0.2703470611764706,0.2743603205882353,0.27732299411764705,0.2794810894117647,0.2818314458823529,0.2844726635294118,0.28735844529411764,0.2901330805882353,0.29280397999999996,0.29559979000000003,0.298415285882353,0.30115890000000006,0.303771445882353,0.30636232823529413,0.3088919529411765,0.31147557411764704,0.31416391764705887,0.3167708629411765,0.31652728882352943,0.31755553882352944,0.3191435641176471,0.3204122788235294,0.3211927464705882,0.32159157823529416,0.32181057687500003,0.3221206526666666,0.32255331785714286,0.3228914576923077,0.32328254000000006,0.3235894636363637,0.32397818300000003,0.3243248066666667
pNuLoCDScore	-0.04290318186274508,-0.06222468774509801,-0.07994065598039216,-0.09193645774509804,-0.09433769774509806,-0.09428808892156863,-0.09521428009803923,-0.09259325421568632,-0.09104645127450983,-0.08336741876470588,-0.0766841021657754,-0.07121017558823531,-0.06677706608597286,-0.06028331796218489,-0.05173090472549019,-0.042276585716911785,-0.03140421323529413,-0.004855541470588254,0.023733336176470582,0.0460904932352941,0.05995356852941183,0.07037060323529416,0.07984686735294119,0.08518419794117654,0.09057560147058827,0.09745432029411766,0.10259452558823534,0.10779125323529412,0.11283329970588238,0.11767440911764707,0.12064608352941181,0.12265590529411774,0.1195734617647059,0.11281296235294125,0.10113749705882366,0.08756610294117659,0.07296313941176472,0.05956102999999996,0.048206248235294125,0.03847868999999998,0.03073228117647059,0.024394502941176455,0.01908000235294116,0.01367773470588235,0.008254614117647052,0.003022032352941184,-0.0023449258823530494,-0.00790245000000006,-0.000873527647058836,0.008920627647058754,0.020388842352941028,0.03088237058823523,0.03813039647058819,0.04747286529411765,0.05694009058823535,0.06555433470588237,0.07324017647058828,0.08015417588235296,0.08673279176470586,0.092828104117647,0.09909636352941176,0.10431887882352942,0.10888701764705885,0.11456773882352944,0.10849362647058824,0.09199525352941185,0.07588073294117653,0.0633286152941176,0.057645164705882324,0.05236944529411769,0.04480830294117644,0.03630759235294123,-0.026077604117647035,-0.03894519205882346,-0.0504703114705882,-0.05770217264705879,-0.05975728999999996,-0.06202672029411763,-0.0641822238235294,-0.06736343535294118,-0.07028271535294117,-0.07333412423529409,-0.07573180369518714,-0.0753717669705882,-0.07354894682352937,-0.07186893043697477,-0.07015440466666667,-0.06843717590441178,-0.06747573799999998,-0.055110932411764735,-0.043835675058823534,-0.037536827999999994,-0.03594540123529412,-0.03382083035294117,-0.03138134888235293,-0.027396779705882335,-0.02366956111764705,-0.018524366411764692,-0.012500952294117657,-0.00789454847058825,-0.003901135823529439,-0.0003943452352941357,0.003646132411764688,0.0075430418235294255,0.01214555005882352,0.01583605652941175,0.017995326235294096,0.020408080941176465,0.023212036823529444,0.025567762705882374,0.02750849388235295,0.028671749176470585,0.029518057647058824,0.029925740000000006,0.030257398235294136,0.03115695764705885,0.03151263382352944,0.030920803823529422,0.030056407352941197,0.028566299705882328,0.028119457352941177,0.026846400882352933,0.02425723617647059,0.021893862058823516,0.019997439705882303,0.01919657852941173,0.018710786470588242,0.01823671058823531,0.016871915882352984,0.015441172941176473,0.014278554117647058,0.012968474117647039,0.011332030588235287,0.010122986470588263,0.007896869411764706,0.0051620732352941345,0.0008815602941176781,-0.004165950294117621,-0.0067598244117646755,-0.006955811470588186,-0.008819317941176436,-0.012323699117647025,-0.0170675873529412,-0.022459869705882346,-0.0271405967647059,-0.03083903323529412,-0.03433349147058823,-0.03831476911764707,-0.04253006705882352,-0.045496945294117686,-0.04762440235294117,-0.04773035088235293,-0.046093342000000065,-0.0428970037647059,-0.04023692964705884,-0.0399052852941177,-0.03946640352941179,-0.03812883035294119,-0.036601221529411754,-0.033974369764705886,-0.03064476035294117,-0.027494077411764697,-0.024814506470588235,-0.022213768235294085,-0.01919536582352939,-0.016404583411764664,-0.01440661576470588,-0.013165122235294119,-0.013168969352941137,-0.014756738176470607,-0.016095085235294126,-0.017075736999999994,-0.017534462176470603,-0.017749518882352947,-0.01714416088235296,-0.01647218911764707,-0.015915797352941186,-0.015759314999999996,-0.015646774176470604,-0.014572163352941203,-0.01351540076470592,-0.012827718823529441,-0.011423375058823543,-0.010455750000000014,-0.008229971176470605,-0.006076027647058821,-0.0037228521176470575,-0.001976052941176476,-0.0005413927058823403,0.00025802400000000947,0.0012451604117647286,0.0021114286470588217,0.00284780188235291,0.0032645483529411407,0.003834522764705875,0.0038994537058823497,0.0037294713529411883,0.003615128764705891,0.003487189117647088,0.003387025823529441,0.0020771862941176555,0.00037760194117648915,-0.00044767947058822755,-0.00046028747058821096,-0.00012668135294117977,0.0002964331176470436,0.000555028117647044,0.00044475099999999324,0.00015771541176472226,9.841776470591312e-05,0.00020131688235294765,0.00046527982352941033,0.0007315586470588165,0.0009505368823529148,0.001166423941176442,0.0013795421764705579,0.003459278764705878,0.006023910529411758,0.007803490999999996,0.008652038999999986,0.008645226411764698,0.008857388176470596,0.009001004058823536,0.00919978941176472,0.009485679176470599,0.009675150588235301,0.009772934411764703,0.00952890641176471,0.009152976117647052,0.008875655529411788,0.008643485176470608,0.008417682823529435,0.006343459647058833,0.002892854000000014,0.0004460935294117868,-0.0010818037647058881,-0.0016906888235293932,-0.0019179352941176564,-0.00214845000000001,-0.0023601680000000097,-0.0023694783529411845,-0.0022432885882353037,-0.0020246838235294107,-0.0017535078235294127,-0.0010788012941176373,-0.0003146632941176536,0.0002221802941176354,0.0005242726470588016,0.0010757946470588142,0.0037219548823529264,0.005697967470588219,0.0068332162352941345,0.007038076235294122,0.006719013882352964,0.006091449176470615,0.005721459235294157,0.005486056058823546,0.00518402547058823,0.004718886294117652,0.004331264764705883,0.003861516411764701,0.0031712295882352914,0.0026158448235294035,0.0023755171764706096,0.0019087631176470526,0.001187435235294118,0.0002760267647058806,-0.00025556552941179145,-1.3564941176505418e-05,0.0004760685882352622,0.0013888056470587884,0.0023825877058823164,0.0030036326470587876,0.0034076614705882136,0.003960992647058806,0.004467726176470593,0.0047176061764705735,0.0050143326470588195,0.005137427352941176,0.005202328529411729,0.0047508978235293875,0.005227510470588226,0.0049956384117646885,0.004658841000000011,0.00388242452941176,0.0032162077647058807,0.002528716588235294,0.0017942648235294012,0.0013085007058823706,0.0006187815882353204,5.297841176472862e-05,-0.00044244747058821976,-0.0006479429999999842,-0.0006055161764705608,-0.0003730548823529245,2.2296647058842045e-05,0.0006250161176470925,0.0010328852352941426,0.0015667878823529546,0.0030055160588235152,0.004705727235294124,0.006306205411764729,0.007386970117647065,0.008093004235294118,0.008567955411764708,0.009334463941176457,0.010076747117647056,0.010671356764705861,0.011030109999999996,0.01112412258823528,0.011185843411764707,0.011009929764705897,0.011544678588235296,0.011691416235294114,0.012605366000000007,0.012725249588235316,0.012748452294117668,0.012516735588235281,0.012638805941176473,0.013050443588235316,0.01369008770588237,0.014255771823529412,0.01466419476470586,0.015303550999999999,0.015963737764705874,0.016596997470588237,0.017199148058823527,0.017578455544117633,0.01759442994117648,0.017020151983193246,0.01638607701809955,0.015522485068627453,0.014739113106951862,0.013820595529411783,0.013005919836601307,0.011856771013071879,0.010621654542483636,0.009448915718954246,0.008303400424836613,0.007115876307189545,0.005914957483660138,0.004791549542483647,0.0037410824836601186
pNuLoCRank	Nonucleus
UniprotNLSRegion	
UniprotNESRegion	
SeqNLSRegion	
SeqNLSPMID	
nlsdbnes_region	
nlsdbnls_region	
validnes_region	
nesbase_region	
Sequence	MSFLVSKPERIRRWVSEKFIVEGLRDLELFGEQPPGDTRRKTNDASSESIASFSKQEVMSSFLPEGGCYELLTVIGKGFEDLMTVNLARYKPTGEYVTVRRINLEACSNEMVTFLQGELHVSKLFNHPNIVPYRATFIADNELWVVTSFMAYGSAKDLICTHFMDGMNELAIAYILQGVLKALDYIHHMGYVHRSVKASHILISVDGKVYLSGLRSNLSMISHGQRQRVVHDFPKYSVKVLPWLSPEVLQQNLQGYDAKSDIYSVGITACELANGHVPFKDMPATQMLLEKLNGTVPCLLDTSTIPAEELTMSPSRSVANSGLSDSLTTSTPRPSNGPVPAPS
PTM	
