UniprotID	E7EMG8
Accession	E7EMG8;F8WCD8
EntryName	E7EMG8_HUMAN
ProteinName	Protocadherin related 15
GeneName	PCDH15
Length	654
Function	
Subcellular Location	Membrane
Disorder	
ExposeBuried	
SurfaceAccessbility	
SecondStructure	
Hydropathy	
Polar	
Charge	
pNuLoCProb	0.34991428
pNuLoCRegion	
pNuLoCScore	0.18953146833333337,0.18435901350000003,0.18232057136363639,0.18175068375000003,0.18298270730769234,0.1849299167857143,0.18569802433333335,0.1849150415625,0.18322078205882353,0.1652861855882353,0.15063754794117648,0.1505526455882353,0.1504328544117647,0.15312790794117648,0.15521289,0.1529044476470588,0.15374649647058822,0.15317556999999996,0.15211878176470586,0.14921253329411766,0.14570473000000003,0.1409485843529412,0.13557497988235295,0.13069741988235295,0.12539712282352944,0.12085735894117645,0.11707533599999997,0.11353971776470585,0.11049144364705882,0.10796036247058823,0.10543716717647057,0.10348667070588236,0.10206798776470587,0.10097712952941176,0.10005746623529412,0.0992230535882353,0.09875947582352941,0.09807774558823529,0.09748572770588236,0.09689932805882352,0.09673013952941177,0.09845334482352941,0.10045087458823532,0.10252762694117647,0.10439692164705884,0.10611060047058825,0.10760506047058825,0.10885043929411767,0.10975641282352942,0.110577692,0.11128871141176472,0.1119980711764706,0.112684875,0.11340711770588235,0.11413696005882353,0.11468010711764706,0.11491804594117648,0.11450089152941177,0.11368103917647059,0.11300462152941178,0.11242524329411763,0.11220244035294116,0.11226573094117645,0.11256672647058824,0.11287870941176469,0.11337924470588233,0.1139160508235294,0.11452783258823529,0.11518527964705882,0.11575149141176469,0.1164935925882353,0.11735641964705881,0.11828752611764705,0.1194968514117647,0.12113355317647058,0.12280141023529412,0.12419799552941176,0.12552323258823528,0.1264579537647059,0.12742240552941175,0.12861208352941175,0.1300284441176471,0.13098895941176472,0.13209399411764705,0.13310329941176471,0.13427998117647058,0.13551731352941176,0.13662361588235294,0.14338272294117646,0.15026646,0.15678926588235295,0.1634233505882353,0.17013214823529413,0.17672735529411762,0.18297762823529412,0.18937752,0.1953137641176471,0.2009422788235294,0.2065069782352941,0.2126534311764706,0.21843039764705882,0.22412426882352945,0.2293936629411765,0.2346851211764706,0.23997432529411764,0.2392741705882353,0.23832925352941176,0.2376076011764706,0.23696744352941182,0.2365610017647059,0.23657717294117647,0.23666377882352946,0.23648386588235293,0.23642830058823527,0.2361945564705883,0.2357668894117647,0.23496083117647057,0.23432882411764705,0.2337579811764706,0.2332913494117647,0.22853175352941174,0.2239837776470588,0.2203422494117647,0.21826982411764706,0.21696058588235292,0.2159771258823529,0.2148881970588235,0.21369289529411764,0.21286179294117646,0.2122016394117647,0.21184695823529412,0.21161933294117644,0.21156700529411762,0.21180218411764704,0.2121328970588235,0.2125798982352941,0.21324973529411761,0.21825004882352939,0.22298689411764702,0.2268820770588235,0.22933738529411762,0.23122816999999996,0.23280823882352938,0.23420040882352938,0.2353247129411764,0.23628608058823525,0.2372359058823529,0.2378125676470588,0.2381645782352941,0.23860553764705883,0.23882199352941172,0.2388982729411764,0.24089805352941174,0.24255456764705877,0.24377255705882347,0.2442904429411764,0.2449185294117647,0.24453145941176466,0.24189528705882352,0.23903524352941177,0.23537285529411764,0.2304413429411765,0.22559860470588236,0.22021476647058824,0.2153371305882353,0.2107428317647059,0.2058971688235294,0.20102840764705882,0.19616487058823528,0.18935231764705882,0.1825906847058823,0.17637655705882355,0.17111054235294115,0.1658779435294118,0.16161237823529412,0.1594289352941176,0.1574087364705882,0.15646317294117643,0.1568218958823529,0.1571927358823529,0.15779196529411765,0.15792701470588236,0.15781982588235294,0.1578794882352941,0.15559788294117646,0.1542845470588235,0.15342099470588236,0.15313896058823526,0.15331220999999995,0.15352841470588235,0.1537785264705882,0.15409518588235296,0.15443687764705882,0.15483550588235295,0.15519808176470587,0.15559812235294118,0.15594760411764708,0.15640369647058824,0.15683331294117647,0.15731376117647058,0.15747571352941178,0.15987310470588234,0.1612555005882353,0.16194736235294116,0.16229125411764705,0.16195845529411765,0.16134960411764707,0.16065641176470594,0.1598735641176471,0.1589621223529412,0.15794353176470588,0.15685339705882353,0.15585015294117643,0.1546488770588235,0.1536375576470588,0.15272544470588234,0.1505060511764706,0.14900636588235297,0.14769389647058823,0.14606262,0.14459132941176472,0.14314467058823532,0.14164351352941182,0.13987153500000005,0.13806132264705884,0.13605433176470585,0.13422378558823528,0.132628724117647,0.13120959764705883,0.1298750923529412,0.12879159647058824,0.12774417882352943,0.12664672470588237,0.12701825470588238,0.12699052,0.12690077882352943,0.12717539647058823,0.12747817176470586,0.12771670823529413,0.12808138352941176,0.12874717264705882,0.12953420088235293,0.13054491882352942,0.1315092220588235,0.13225174705882353,0.1329765305882353,0.1336477211764706,0.13421103529411768,0.13643970823529414,0.13821302352941178,0.13979996,0.14174081411764705,0.14350499588235296,0.1452978029411765,0.1470410017647059,0.14865648352941174,0.1500671641176471,0.15130734823529415,0.1526630694117647,0.1539092588235294,0.1546995788235294,0.1552698288235294,0.15551472470588237,0.1558518229411765,0.15632220764705881,0.15513241117647059,0.15443138235294118,0.15394310294117644,0.1528833605882353,0.15203416294117647,0.15116679941176472,0.15030844764705883,0.14960205941176472,0.14892116647058826,0.14851263000000003,0.1479783511764706,0.14755593176470588,0.1474617976470588,0.14769531352941176,0.14822616,0.14958955588235295,0.15052501529411763,0.1513854917647059,0.15223228647058823,0.15304939647058824,0.15408314411764704,0.15503037411764706,0.1559572776470588,0.15689453705882353,0.15765527588235292,0.1583056611764706,0.15874118823529412,0.1591186405882353,0.15952038764705884,0.16017758294117648,0.1606723047058824,0.16116778058823533,0.16070526294117649,0.16046695470588235,0.16026863117647058,0.16007964235294117,0.15985840764705883,0.15953407705882353,0.15922838647058823,0.15885793,0.1584987176470588,0.15830778176470586,0.15846225235294117,0.15876355117647056,0.15915756176470588,0.1595162988235294,0.15974127411764705,0.1603038870588235,0.16017364294117648,0.15964612117647062,0.15868225058823532,0.1578359852941176,0.1567496194117647,0.1554176764705882,0.15389801470588235,0.1517706794117647,0.14937527352941177,0.14752772176470588,0.14596663588235298,0.14475353588235298,0.1433906305882353,0.14217633470588237,0.1411488323529412,0.14020353705882352,0.1390000117647059,0.13868498941176474,0.1387998182352941,0.1396242688235294,0.14039278470588235,0.14142652529411764,0.14279139705882352,0.14444160882352938,0.14689137764705884,0.14973841588235293,0.15211075000000004,0.154196805882353,0.1558842217647059,0.1578734523529412,0.1598201841176471,0.16439866705882353,0.16792423352941177,0.1712652788235294,0.17461469941176472,0.17783883352941177,0.1809083211764706,0.1839462411764706,0.1866650188235294,0.18911201470588235,0.19163102411764707,0.1939782311764706,0.19623702470588233,0.1982361694117647,0.2000563994117647,0.2018327576470588,0.20349782411764702,0.2050782335294118,0.2039291594117647,0.20379904941176472,0.20388089705882356,0.20375091352941174,0.2037525305882353,0.20368307000000002,0.20350582352941174,0.20355761,0.20373905529411762,0.2037478970588235,0.20365200352941173,0.2035064382352941,0.20354459117647059,0.20368199235294115,0.20389401999999998,0.2034569970588235,0.20291695882352936,0.20302375529411762,0.20361863117647055,0.2043671776470588,0.20496618411764703,0.20565465411764705,0.20646681588235294,0.20737906588235294,0.20799484588235298,0.20849999882352943,0.2089530470588235,0.20925746647058818,0.2096172182352941,0.21002465999999997,0.21030506294117646,0.21066148999999998,0.2114865594117647,0.21225065588235295,0.21216112,0.21141246411764708,0.2105681547058824,0.20988914294117647,0.20908690352941176,0.2082231341176471,0.20729735529411766,0.20667889058823527,0.20620050352941174,0.20580448647058824,0.20554517764705882,0.2052774888235294,0.20496351352941175,0.20579765588235288,0.20602324235294112,0.20645654176470585,0.20674700647058822,0.20712408176470584,0.20769447,0.2082664123529412,0.20873169,0.20916685764705883,0.20942314764705885,0.20958984470588238,0.20954567764705886,0.20905167000000005,0.20876953705882356,0.2085163511764706,0.20846714588235293,0.20836341470588238,0.20741304058823531,0.2071238917647059,0.20680013529411764,0.2066367088235294,0.20663552117647058,0.20663529411764706,0.2066102588235294,0.20668316176470589,0.2068098488235294,0.20708518470588239,0.2073934823529412,0.2079134829411765,0.20897510470588238,0.20988327647058827,0.2108161341176471,0.21317876117647064,0.21595128941176472,0.21858231411764706,0.2208486729411765,0.2228846947058824,0.22479359647058825,0.22643796705882352,0.22829375705882352,0.23026049294117645,0.2322167970588235,0.2340511788235294,0.23573461294117645,0.23742254411764704,0.23885821941176472,0.2401119388235294,0.2413153229411765,0.24250511705882355,0.24161684058823532,0.24080402352941177,0.24020078470588235,0.23996774352941172,0.2400983364705882,0.2403969970588235,0.24090989999999995,0.2412304135294118,0.2414077570588235,0.24169690294117643,0.24211223235294121,0.2424989141176471,0.24295126941176476,0.24364359941176475,0.24444371882352942,0.24266745647058824,0.24078742823529412,0.23909560823529413,0.23604625352941178,0.23392065999999997,0.23218425117647057,0.23069654176470586,0.22983502588235294,0.22933382529411767,0.2290775717647059,0.2291140429411765,0.2293621752941177,0.22969638588235294,0.23007837529411765,0.2304438388235294,0.23073058176470587,0.2309379829411765,0.23370031882352937,0.23669574352941178,0.23961894647058823,0.2438026570588235,0.24696513411764703,0.24962352058823528,0.25196610352941173,0.25381485470588233,0.2552933535294117,0.25650844294117636,0.2574389047058823,0.2580223411764706,0.25855726999999995,0.2592828076470588,0.2599433158823529,0.26183620647058825,0.2621061211764706,0.26321644,0.26453044588235297,0.2656806152941177,0.26641820941176475,0.2666829188235294,0.2668870764705882,0.26723345823529404,0.26774006294117647,0.2682770376470588,0.2688759541176471,0.2695537294117647,0.270342305882353,0.27118320941176466,0.2719700082352941,0.2727036352941176,0.27239838470588235,0.27377572411764706,0.27439124882352944,0.2747401970588235,0.275671844117647,0.2768201852941176,0.2784476005882353,0.2801925064705882,0.28180291,0.28319539529411764,0.28461069705882347,0.28597633058823524,0.28725414882352945,0.28852297764705886,0.289673645882353,0.2905474888235295,0.2904789394117647,0.29156597,0.292777764117647,0.2938978776470588,0.29516451,0.2960827582352941,0.2967379052941177,0.2973491229411765,0.2977368288235294,0.29821450411764705,0.29876761764705884,0.29902444117647053,0.2989923635294117,0.29898370176470584,0.29885549529411765,0.2988087882352941,0.2990790747058824,0.3003151311764706,0.3000285647058824,0.29922977941176476,0.29842692058823533,0.2973899535294118,0.2965938111764706,0.29604625235294124,0.29554131235294123,0.2952390041176471,0.2948213217647059,0.2943950276470588,0.2941671264705882,0.2941880676470588,0.2940453511764706,0.29568118529411763,0.2976153276470588,0.2986506070588235,0.29968983705882346,0.30086177058823527,0.30247223,0.30402366705882355,0.30584100941176473,0.30777455764705886,0.3094717488235294,0.31125165470588234,0.313095114117647,0.31488944117647055,0.3166666217647059,0.31862985235294117,0.3206123523529412,0.3227602794117647,0.32314123529411765,0.32312648647058817,0.32395011058823525,0.32487304647058823,0.32585771411764713,0.32662065882352953,0.3273307923529412,0.3278081764705883,0.32809871058823536,0.32845453117647067,0.32868793117647066,0.3287759917647059,0.3287583029411765,0.3286136658823529,0.3283812823529411,0.32946202705882355,0.329851155882353,0.3304081523529412,0.33105856352941176,0.33177316176470595,0.3328116394117647,0.3338320952941176,0.3348604352941176,0.3359744352941177,0.33713261294117647,0.3383054776470588,0.33921910941176475,0.33960016823529415,0.3398073064705883,0.3395434876470589,0.33946336411764705,0.33909776529411767,0.3374424864705882,0.3365562741176471,0.3355766,0.33453693999999995,0.3335065576470588,0.332181944117647,0.3310178723529411,0.3300127064705882,0.3290492358823529,0.32808202823529403,0.3271381364705883,0.32655596235294126,0.32643643470588235,0.3265589523529412,0.32723972529411766,0.32694783470588235,0.32816994352941176,0.33000627882352934,0.33178727058823526,0.33330259411764696,0.33473448470588235,0.33620252411764706,0.33766859000000005,0.3390345305882353,0.3403649041176471,0.34172047529411764,0.34309344176470585,0.34439065588235296,0.34557765588235295,0.3465758825,0.34759614466666666,0.34868892142857144,0.3510500876923077,0.3519022408333334,0.35181067909090913,0.351554837,0.3516064677777778
pNuLoCDScore	-0.006310686274509841,-0.024245282745098073,-0.03889392039215689,-0.03897882274509806,-0.03909861392156866,-0.03640356039215689,-0.03431857833333338,-0.036627020686274575,-0.03578497186274515,-0.031183443500000074,-0.030201789598930523,-0.032538150455882375,-0.037277977307692306,-0.04398133243277311,-0.0501230444509804,-0.05421762168014704,-0.05782365923529409,-0.04442882664705884,-0.033562211941176506,-0.037012927823529454,-0.03994141076470589,-0.04516754547058825,-0.04977572282352942,-0.04941777694117644,-0.05167850870588235,-0.05219844047058819,-0.05206131552941175,-0.049989479705882356,-0.04694525417647062,-0.042870838764705904,-0.03808925217647059,-0.03379809182352943,-0.028666983294117668,-0.022404014117647045,-0.016624461411764657,-0.011012090823529386,-0.006094521999999977,-0.001849761999999977,0.0021678932941176787,0.0053637685882353126,0.007688425058823556,0.009600562470588242,0.011231245176470603,0.012775017588235307,0.013925399176470593,0.015329372117647067,0.016651232352941164,0.01778077905882354,0.01818790641176471,0.016047546705882362,0.013230164588235269,0.010476994588235311,0.008028321647058786,0.006091839882352915,0.004660670470588199,0.003716287176470573,0.0031222965882352627,0.0028015527058823236,0.0026273394117646842,0.0025297614117646833,0.002500404647058821,0.0023443737058823355,0.0023566325294117757,0.0026763125294117507,0.0033694801764705684,0.004995959882352935,0.007452513999999993,0.00979678870588234,0.011772752235294129,0.013320792235294115,0.014192222823529443,0.014855679058823512,0.015733374117647067,0.01664919941176478,0.01707290858823532,0.01756616152941176,0.01791801976470589,0.01852848976470589,0.019023720941176464,0.01926719623529413,0.02509519682352941,0.030769608588235284,0.03565571270588237,0.04062194035294117,0.04593415270588237,0.05120412270588234,0.05651967447058823,0.06195511447058824,0.06670168058823533,0.0709138347058823,0.07551801882352938,0.08055943705882354,0.08532709823529411,0.08984428764705887,0.09387634941176473,0.09806150529411767,0.09659160235294117,0.08900771058823531,0.0815399876470588,0.0741842505882353,0.06683529529411769,0.05983364647058828,0.05359954470588235,0.047286258823529465,0.04117010176470584,0.03548602176470586,0.029687578235294193,0.02311345823529412,0.016530433529411748,0.010204555294117595,0.004364318235294096,-0.0013937717647059256,-0.011442571764705894,-0.015290392941176512,-0.01798700411764706,-0.01933777705882353,-0.020006857647058895,-0.020583875882352998,-0.021688975882352968,-0.022970883529411817,-0.023622072941176464,-0.02422666117647057,-0.02434759823529417,-0.024147556470588277,-0.023393825882352948,-0.022526640000000014,-0.021625084117647103,-0.02071145117647058,-0.015282018235294126,-0.005733728823529405,0.0026446447058823264,0.00861225294117643,0.0123767994117647,0.01525104411764705,0.01792004176470588,0.02050751352941174,0.022462919999999942,0.024084441176470545,0.02538894764705879,0.026193234705882362,0.026597572941176484,0.026803353529411794,0.02668909647058823,0.026318374705882303,0.027648318235294123,0.02430451882352938,0.020785662941176453,0.017408365882352922,0.015581144117647078,0.013303289411764702,0.009087048235294132,0.00483483470588239,4.814235294123281e-05,-0.005844737647058756,-0.01163730117647055,-0.017597801176470557,-0.022827447647058796,-0.02786270588235293,-0.032924824705882316,-0.037869865294117594,-0.04473318294117645,-0.05320224999999995,-0.061181872352941175,-0.06791388588235286,-0.07380798705882355,-0.07865351588235286,-0.0802829088235294,-0.07960630823529416,-0.07796411882352944,-0.07397817000000007,-0.06877670882352946,-0.06302203058823533,-0.057545165294117656,-0.052815817058823544,-0.048077342941176465,-0.04314891941176471,-0.04056698764705882,-0.03506777058823532,-0.029169689999999943,-0.02323759647058829,-0.017798332352941204,-0.012349528823529438,-0.007833851764705912,-0.005333749411764649,-0.0029718588235293775,-0.0016276670588234732,-0.0016238141176470322,-0.0015946135294117314,-0.001844361176470577,-0.0015233182352941133,-0.000986512941176465,-0.0005657270588235175,0.0018778305882353186,0.005588557647058845,0.007834505882352932,0.008808401764705903,0.008979044117647106,0.008430040588235294,0.00757107764705886,0.006561225882352972,0.005436686470588287,0.004126616470588235,0.0027454500000000104,0.0012552747058823532,-9.745117647064205e-05,-0.001754819411764752,-0.0031957552941176692,-0.004588316470588244,-0.006969662352941192,-0.01086673882352937,-0.013561604117647064,-0.015884742352941156,-0.01769992470588233,-0.018813784705882325,-0.019706090588235248,-0.02078487676470589,-0.021812241470588273,-0.022907790588235333,-0.023719746176470602,-0.024224672941176528,-0.0246405552941176,-0.02477378470588229,-0.02484596117647056,-0.024981265882352915,-0.02385932647058822,-0.021988111176470593,-0.02070337647058823,-0.019161841176470573,-0.017415932941176493,-0.015666498823529468,-0.013926805294117689,-0.01179015147058829,-0.009314150000000021,-0.006520130882352926,-0.003678866764705857,-0.001119502058823496,0.0010421494117646979,0.0031014382352941017,0.00485612470588237,0.006466856470588256,0.00979298352941177,0.011194768823529405,0.012809440000000005,0.01484003529411762,0.016329599411764734,0.017819631176470646,0.019324293529411757,0.020575099999999985,0.021319991470588273,0.021773147352941224,0.02211815058823527,0.022400036764705894,0.022447831764705856,0.022293298235294107,0.02186700352941176,0.021640787647058818,0.019882499411764676,0.016919387647058803,0.014631422352941181,0.01220228882352939,0.009378364705882325,0.006736359999999969,0.0041257976470588376,0.0016519641176470923,-0.0004651047058823743,-0.002386181764705897,-0.004150439411764656,-0.0059309076470588085,-0.007143647058823505,-0.007808031176470609,-0.007819411176470614,-0.007625662941176503,-0.00673265176470586,-0.004607395882352955,-0.0030458905882352894,-0.0017108164705882112,0.00016603588235294953,0.0020489811764705657,0.0038635747058823333,0.005648829999999966,0.007292477647058815,0.008734109411764668,0.009793031176470568,0.010762837058823527,0.011562708823529416,0.012058590000000036,0.012482269411764724,0.0124461447058824,0.011578224705882378,0.010180247647058854,0.009081462941176455,0.008036344705882353,0.007030245882352931,0.005775263529411795,0.004503702941176468,0.003271108823529434,0.0019633929411764783,0.0008434417647058823,2.120588235260401e-06,-0.00027893588235294864,-0.0003550894117647363,-0.00036282588235295177,-0.0006612841176470707,-0.0009310305882353487,-0.0008638935294118244,-0.0005316200000000104,-0.0008208335294117297,-0.0015863805882352644,-0.002243657058823567,-0.0031087882352941187,-0.004116400588235314,-0.005330371764705882,-0.007087250588235311,-0.00912344411764704,-0.01078005999999998,-0.012495616470588194,-0.014010015294117578,-0.015766931176470572,-0.017339964117647044,-0.01859244176470584,-0.02010034999999999,-0.021173631176470586,-0.020961131764705876,-0.01988243235294121,-0.018211716470588196,-0.016356834705882367,-0.013991151176470568,-0.011106617647058836,-0.007329070588235315,-0.0024838958823529267,0.002210694117647044,0.006144114117647065,0.009443270000000004,0.012493591176470586,0.015697117647058834,0.018671351764705885,0.02419513000000001,0.028924221764705882,0.03258028941176466,0.03581488117647061,0.03821456470588236,0.040515536470588254,0.042519715882352954,0.043873621764705883,0.044670405882352965,0.04473964647058823,0.04423981529411766,0.04412627470588229,0.04403936352941171,0.0441721776470588,0.043959305294117595,0.043677639999999934,0.04067956647058826,0.036004925882352934,0.03253377058823531,0.029266197647058845,0.025912079999999976,0.02284420941176471,0.019736828823529423,0.01684080470588234,0.014445595294117652,0.012108031176470552,0.009769665882352924,0.0074149788235294,0.005270268823529406,0.0034881917647058835,0.0018492347058823577,0.00039619588235295655,-0.0016212364705882887,-0.0010122005882353402,-0.0007752941176470962,-0.00026226588235300774,0.000616264117647064,0.0012136535294117179,0.0019715841176470295,0.0029609923529411997,0.003821455882352942,0.004255790588235359,0.004752101764705918,0.00530104352941177,0.005751028235294081,0.0060726270588235265,0.0063426676470588195,0.006411042941176476,0.007204492941176477,0.008569600588235332,0.009226900588235332,0.008542488823529454,0.0070452864705882745,0.005601970588235361,0.00423448882352942,0.0026200876470588164,0.0008440682352941486,-0.0006974905882353166,-0.001821108235294161,-0.0027525435294117606,-0.003452979999999939,-0.004072040588235293,-0.004747171176470583,-0.005341549411764707,-0.004863834117647098,-0.00546331705882358,-0.005794114117647103,-0.00541411352941179,-0.004288382352941239,-0.0028736847058823956,-0.0016227305882352827,-0.00035521352941175754,0.0009437235294117441,0.0021257923529411915,0.0029109541176471077,0.0033451741176471206,0.0032471835294118068,0.0032243594117647434,0.003238862352941213,0.003503632352941183,0.002565758823529496,0.0013897982352941984,0.0006673500000000387,5.312882352942472e-05,-0.00048737294117642826,-0.0010589488235294153,-0.0016311182352941322,-0.002121431176470595,-0.0024836958823529487,-0.002613298823529453,-0.002504659999999992,-0.0021521952941176703,-0.001138187058823542,0.00020556764705881303,0.0013669252941176657,0.0023489882352941693,0.004815346470588261,0.00853824882352941,0.011458422352941172,0.01404853764705885,0.01624798588235299,0.01815807529411767,0.019802672941176463,0.021683498235294113,0.023577331176470567,0.025406948235294102,0.026965994117647024,0.028341130588235258,0.029509061176470536,0.02988311470588234,0.030228662352941138,0.030499188823529394,0.02932635588235291,0.025665551176470597,0.022221709411764712,0.01935211176470586,0.017083048823529318,0.015304739999999956,0.013959029999999983,0.01261614294117644,0.010969920588235343,0.009190959999999998,0.007645724117647024,0.006377619411764762,0.005076370000000052,0.0040930500000000425,0.0035316605882353413,0.003128395882352919,0.00016233941176468925,-0.0008294123529412056,-0.0017084152941176378,-0.004154531176470577,-0.006047083529411745,-0.007914085294117634,-0.009700455294117644,-0.011074874117647016,-0.011896588235294131,-0.012330185294117613,-0.012582859999999946,-0.01275005705882351,-0.012802528235294153,-0.01287289411764711,-0.013199760588235354,-0.013713137058823544,-0.011729473529411727,-0.0070871094117647415,-0.002399864705882354,0.0035726929411764585,0.009881997058823533,0.014780882941176465,0.018926978823529422,0.022131077647058794,0.024481029411764665,0.026215781764705792,0.027394399999999874,0.028076729411764617,0.02832595529411766,0.0284788947058823,0.028838968823529404,0.02921273411764705,0.03089822352941174,0.028405802352941212,0.026520696470588218,0.024911499411764737,0.021877958235294176,0.019453075294117717,0.01705939823529412,0.014920972941176447,0.01341860352941171,0.01244670941176479,0.01176859470588243,0.011437049411764766,0.011531388235294093,0.011785035882353023,0.011900401764705859,0.012026692352941182,0.010867428823529368,0.01029226352941176,0.010559284117647061,0.009860802941176472,0.009059581764705837,0.009253634705882252,0.010137266470588213,0.01156052411764713,0.012959048235294146,0.014062847058823547,0.014918357647058844,0.015734742941176383,0.01642260117647054,0.01691184294117648,0.017339768235294206,0.0177036376470589,0.01784385352941187,0.01808055470588238,0.01779024588235295,0.018386515294117556,0.019157680588235304,0.01949266588235299,0.019262572941176503,0.018290304705882388,0.017156616470588304,0.015933918823529403,0.015019108823529415,0.014156920588235367,0.013048110588235295,0.011738214705882266,0.01046072411764698,0.009181849411764642,0.008261299411764622,0.008600135294117683,0.008749161176470566,0.0072508005882354065,0.0053319017647059375,0.0032624105882353427,0.0013071952941176579,-0.00014409411764709779,-0.0013028705882352498,-0.002195516470588188,-0.0029754999999999643,-0.003946295882352957,-0.004629413529411708,-0.004825237058823539,-0.004795634117647052,-0.0048101441176470194,-0.003127602941176477,-0.0014637470588236279,-0.0016645241176470593,-0.0003387276470589451,0.0016319911764705042,0.004045309411764675,0.006633713529411778,0.00924719823529413,0.011728305294117614,0.01393043647058817,0.016012650588235255,0.01827379235294113,0.020494413529411726,0.02249949529411771,0.024441784705882375,0.026567001176470595,0.027079094117647085,0.025525907647058865,0.024475879411764656,0.02426027352941179,0.024011275882352967,0.023385484117647126,0.022596991764705976,0.021489782941176483,0.020033618823529442,0.018626961764705963,0.017202876470588324,0.01559281705882365,0.013886550588235347,0.012091681176470581,0.009983813529411745,0.007768929999999896,0.006701747647058831,0.00670992058823533,0.007281665882353017,0.007108452941176513,0.006900115294117715,0.006953925294117591,0.007211436470588084,0.007529642941176362,0.008166258823529393,0.009033902352941103,0.009850946470588151,0.010531178235294092,0.010824176470588254,0.01104900352941185,0.010929821764705971,0.011082081764705931,0.009635738235294122,0.0075913305882352455,0.006148121764705916,0.004518036470588238,0.002763778235294001,0.0006949182352940508,-0.0016501511764706045,-0.003842562941176464,-0.005961728823529466,-0.00808337705882356,-0.010223449411764785,-0.012080972941176438,-0.013044205882352888,-0.013370871764705972,-0.012984535294117694,-0.012223638823529392,-0.012149930588235325,-0.009272542941176465,-0.006549995294117761,-0.0037893294117647414,-0.001234345882352994,0.0012279270588235747,0.004020580000000051,0.006650717647058935,0.00902182411764707,0.011315668235294174,0.01363844705882361,0.01595530529411754,0.017834693529411694,0.019141221176470602,0.020016930147058798,0.020356419372549006,0.021741086722689096,0.022880144162895966,0.021895962009804038,0.020023408502673867,0.018252242882353054,0.01687198307189547,0.015403943660130759,0.013937877777777774,0.012571937189542526,0.011241563660130738,0.009885992483660178,0.008513026013071967,0.007215811895424862,0.006028811895424868
pNuLoCRank	Low
UniprotNLSRegion	
UniprotNESRegion	
SeqNLSRegion	
SeqNLSPMID	
nlsdbnes_region	
nlsdbnls_region	
validnes_region	
nesbase_region	
Sequence	MFRQFYLWTCLASGIILGSLFEICLGQYDDDCKLARGGPPATIVAIDEESRNGTILVDNMLIKGTAGGPDPTIELSLKDNVDYWVLMDPVKQMLFLNSTGRVLDRDPPMNIHSIVVQVQCINKKVGTIIYHEVRIVVRDRNDNSPTFKHESYYATVNELTPVGTTIFTGFSGDNGATDIDDGPNGQIEYVIQYNPDDPTSNDTFEIPLMLTGNIVLRKRLNYEDKTRYFVIIQANDRAQNLNERRTTTTTLTVDVLDGDDLGPMFLPCVLVPNTRDCRPLTYQAAIPELRTPEELNPIIVTPPIQAIDQDRNIQPPSDRPGILYSILVGTPEDYPRFFHMHPRTAELSLLEPVNRDFHQKFDLVIKAEQDNGHPLPAFAGLHIEILDENNQSPYFTMPSYQGYILESAPVGATISDSLNLTSPLRIVALDKDIEDTKDPELHLFLNDYTSVFTVTQTGITRYLTLLQPVDREEQQTYTFSITAFDGVQESEPVIVNIQVMDANDNTPTFPEISYDVYVYTDMRPGDSVIQLTAVDADEGSNGEITYEILVGAQGDFIINKTTGLITIAPGVEMIVGRTYALTVQAADNAPPAERRNSICTVYIEVLPPNNQSPPRFPQLMYSLEISEAMRVGAVLLNLQHGDSNLRESTGQGKH
PTM	
