UniprotID	Q9BVP2-2
Accession	Q9BVP2;B2RDC1;Q5PU80;Q96SV6;Q96SV7;Q9UJY0
EntryName	GNL3_HUMAN
ProteinName	Guanine nucleotide-binding protein-like 3 (E2-induced gene 3 protein) (Novel nucleolar protein 47) (NNP47) (Nucleolar GTP-binding protein 3) (Nucleostemin)
GeneName	GNL3 E2IG3 NS
Length	537
Function	May be required to maintain the proliferative capacity of stem cells. Stabilizes MDM2 by preventing its ubiquitination, and hence proteasomal degradation (By similarity).
Subcellular Location	Nucleus; Nucleus; Nucleolus
Disorder	
ExposeBuried	
SurfaceAccessbility	
SecondStructure	
Hydropathy	
Polar	
Charge	
pNuLoCProb	0.89253265
pNuLoCRegion	9...45;62...94;215...215;467...475
pNuLoCScore	0.1355362416666667,0.13528523250000005,0.1338971231818182,0.13774889375000002,0.14136023423076927,0.14614405321428572,0.15397022966666668,0.1616232934375,0.1695140173529412,0.16078323500000002,0.15648032735294118,0.16649997029411767,0.18016336288235293,0.1965524266470588,0.21444307699999998,0.2331458156470588,0.25081396058823524,0.2671383423529412,0.28128045235294113,0.2960083211764705,0.30832297294117644,0.3201152258823529,0.3311407788235294,0.34001724058823535,0.3670991964705883,0.39293561058823523,0.42170888117647054,0.45161632235294114,0.4827759388235294,0.5123601276470588,0.5422738264705882,0.570353234117647,0.5982008064705882,0.626400038235294,0.6546952752941175,0.6811780764705881,0.7077471470588235,0.7333127735294116,0.7591893758823529,0.784414896470588,0.8084698052941176,0.8135754758823529,0.8188477264705881,0.8210173617647057,0.8220788735294118,0.8229251970588235,0.8236169788235294,0.8241012317647058,0.8244827805882353,0.8247729294117647,0.8249784535294118,0.8251696164705882,0.8254701788235295,0.8259096141176471,0.8262204517647058,0.8265269988235294,0.8280161311764707,0.8301580017647059,0.8317923488235294,0.8329767370588236,0.834307084117647,0.8355490017647059,0.8368992570588236,0.8381332129411764,0.8395185423529412,0.840876187647059,0.8422970170588236,0.8437065335294118,0.8449729688235293,0.8461550158823529,0.8473127452941176,0.8484641899999998,0.849684692352941,0.8498508194117645,0.8495112958823527,0.8497191429411763,0.8503638470588235,0.8508137982352941,0.8512716688235293,0.8515969547058821,0.8520914605882354,0.8525368211764706,0.8529841152941177,0.8533894623529412,0.8538948311764706,0.8544570800000001,0.8550473658823529,0.8556120894117647,0.8570872717647058,0.8582638158823529,0.8592120770588235,0.859851155882353,0.8601433205882353,0.8602158341176471,0.8603822394117647,0.8606901511764705,0.861057215882353,0.8613666652941177,0.8616806635294118,0.8619506847058824,0.8622385405882353,0.8625209205882354,0.8627868188235295,0.8630489152941178,0.8633443564705883,0.8627717052941177,0.8623561670588236,0.8620505105882353,0.8619428576470589,0.8621012870588236,0.8623811911764706,0.8626145682352941,0.862772774117647,0.8628940123529413,0.8630322670588235,0.8631326023529411,0.8632640658823529,0.863334465882353,0.863401075882353,0.8635122229411766,0.8641750170588236,0.8648945523529411,0.8655659252941177,0.8662197017647059,0.8668298229411766,0.8675018829411765,0.8682136476470589,0.8689599905882355,0.8696870923529414,0.8703771511764707,0.87100886,0.8716514676470589,0.8723037870588235,0.8729396199999999,0.8735828170588236,0.8741458976470587,0.874670874117647,0.8745578211764706,0.874352862352941,0.8741818670588235,0.8740547435294118,0.8739999064705881,0.8739434047058824,0.8738853252941176,0.8738279782352941,0.8737418311764705,0.8736526523529411,0.8735876788235295,0.8735212847058822,0.873455924117647,0.8733924123529411,0.8733225388235292,0.87261038,0.872198162352941,0.8718943623529409,0.8714437776470587,0.8703705011764705,0.8696158835294118,0.8689096523529412,0.8683140858823529,0.8678232535294118,0.8674108652941177,0.8670502770588238,0.8667248205882354,0.8663863294117649,0.8661002588235295,0.8658413911764707,0.8655984205882354,0.8654045441176472,0.8659291282352942,0.866133545882353,0.8662835541176471,0.8666103564705883,0.8675349858823529,0.8681392917647058,0.8686812523529411,0.8690770817647058,0.8693840111764705,0.8696420935294116,0.8698630788235292,0.8700564688235293,0.8702574217647058,0.8704059688235293,0.8705223658823528,0.8707749211764705,0.87102883,0.8712780547058824,0.8715663782352943,0.8717708700000001,0.8719432070588237,0.8720635688235295,0.872234453529412,0.8723817788235295,0.8725045276470589,0.8725606805882353,0.8725513511764705,0.872487554117647,0.8723799082352941,0.8722297082352942,0.8720416552941177,0.8718308941176471,0.871469185882353,0.8710654211764706,0.870622541764706,0.8701578205882352,0.8697947735294118,0.8694467805882352,0.8692005829411764,0.868916542352941,0.8686772129411765,0.8684965376470588,0.8683848729411766,0.8683497023529414,0.8683523905882353,0.8683581794117649,0.8683719264705884,0.8684076229411765,0.8686928664705883,0.868925804117647,0.8691767070588233,0.8692326247058824,0.8690579223529411,0.8687266576470588,0.8683831841176469,0.8679836758823529,0.8675436705882352,0.867147204117647,0.8668107464705882,0.8665306788235293,0.8662873141176471,0.8660283611764706,0.8658390005882354,0.86568633,0.8655750805882353,0.8652304847058823,0.8649717447058823,0.86471263,0.8646688064705882,0.8648824358823529,0.8651912335294117,0.8654543529411766,0.8656646823529414,0.865873025882353,0.8659996788235295,0.8660160241176472,0.8659199329411765,0.8657102682352942,0.8655146235294118,0.8647330629411765,0.8634007247058824,0.8615932623529412,0.8598371817647059,0.8582210647058823,0.8566379647058823,0.8550105470588235,0.8534747411764707,0.8520831611764706,0.8508279123529413,0.8496164005882354,0.8483675476470589,0.8470688611764706,0.8458331270588236,0.8446427605882354,0.8435378488235296,0.8424710052941178,0.8418266994117648,0.8415875494117648,0.8417266941176472,0.8418674323529413,0.8418723970588236,0.8418652935294118,0.8418602082352941,0.8418275611764705,0.8417370964705881,0.8415957876470588,0.8415109052941175,0.8415006523529411,0.8416138994117647,0.8416824252941177,0.8417853035294118,0.8423249541176471,0.8426966541176472,0.8429369364705883,0.842984854117647,0.8434396347058822,0.8440613611764707,0.8447961041176472,0.845618901764706,0.8465349870588235,0.8472970694117647,0.848030928235294,0.8487672017647059,0.8496272194117646,0.8505623099999999,0.8515299958823529,0.8525852805882354,0.8536586017647059,0.8543356647058824,0.8552125252941178,0.8563821705882355,0.8579201211764708,0.859146167647059,0.8601901500000002,0.8611275735294118,0.861973055882353,0.8627906764705882,0.863714484117647,0.8646198488235293,0.8655236958823529,0.8663005664705881,0.867007458235294,0.867629278235294,0.868604264117647,0.8694775958823527,0.8703827,0.8712745717647059,0.8721426499999999,0.8729915111764706,0.8738148229411766,0.8745712523529413,0.8752557876470589,0.8759098552941177,0.8765561288235295,0.8771934776470589,0.877843677647059,0.8784689188235295,0.8790668541176472,0.8796524011764707,0.8802416811764706,0.8804021223529411,0.8805907911764705,0.8806640341176469,0.8806764035294116,0.8806716070588233,0.880647386470588,0.8806216005882352,0.880631504117647,0.8806654605882352,0.8806943694117647,0.8807008547058823,0.8806911882352941,0.8806672176470589,0.8806392117647059,0.8806174352941175,0.8803983176470588,0.8802014923529411,0.8800137805882352,0.8796484117647058,0.8791054511764705,0.8786862082352942,0.8783479488235294,0.8780613047058824,0.8778220164705882,0.8776101129411764,0.8774453129411766,0.877314165882353,0.8771893041176472,0.8770754729411766,0.8769840847058825,0.8768887235294119,0.8767993905882354,0.8769146282352943,0.8770117500000002,0.8771106188235295,0.87739881,0.8778835017647059,0.8782631811764706,0.878559595882353,0.8787958882352941,0.8789763447058824,0.8791002505882354,0.879181505882353,0.8792464705882352,0.8793069117647058,0.8793581705882353,0.8793630941176469,0.8788555964705882,0.8785547117647059,0.8782779388235293,0.8780020170588234,0.8776219247058823,0.8771737041176471,0.8766302323529412,0.8760882411764707,0.8755216294117648,0.8750208311764707,0.8745619417647061,0.8741565147058825,0.8737397500000001,0.8733086852941178,0.8729006935294119,0.8725295111764707,0.8722135288235294,0.8723971052941176,0.8723658029411764,0.872312244117647,0.8722695217647057,0.8723357099999999,0.8724565188235293,0.8726691076470589,0.8728855347058824,0.8731447329411766,0.8733662976470588,0.8735482423529412,0.8737141252941176,0.8739110782352941,0.874113078235294,0.8743001876470587,0.8745398170588236,0.8748827052941176,0.8752948052941176,0.8757237694117647,0.8761615788235294,0.8765310229411766,0.8768372658823531,0.8770409594117646,0.8771943388235295,0.877379617647059,0.8775799782352942,0.8777545841176471,0.8779433629411766,0.878130875882353,0.8782890641176471,0.8784297758823532,0.878538725882353,0.878570931764706,0.878482905882353,0.8783416505882353,0.8781851147058823,0.8780110199999999,0.8778931729411763,0.8778148535294118,0.8778370652941176,0.8778984382352942,0.8779308088235293,0.8779429523529412,0.8779749347058823,0.8780060029411764,0.8780336811764705,0.8780876341176471,0.878331534117647,0.8785154388235294,0.8786545564705882,0.878701888235294,0.8788059335294117,0.8789562605882352,0.87909264,0.8792523341176471,0.8794141047058824,0.8795924435294119,0.8797943647058825,0.8800032147058824,0.8802146570588235,0.8804213276470589,0.8806119629411765,0.8807930652941175,0.88094643,0.8809325417647059,0.8810117282352942,0.8811307988235295,0.8813420847058824,0.8815117264705883,0.881653875882353,0.8818179252941176,0.8819651329411764,0.8821334564705882,0.8823105270588235,0.8824779723529412,0.8826399776470588,0.882801974117647,0.8829698976470589,0.8831563447058823,0.8837511394117649,0.8843625923529411,0.8849455335294117,0.8855125352941177,0.8860761564705881,0.8866300529411764,0.88716186,0.8876733311764704,0.8881773794117646,0.8886714458823528,0.8891548635294118,0.8896255076470588,0.890093597647059,0.8905526164705883,0.8910010576470588,0.8914398400000001,0.8918669870588237,0.89189057,0.8919187070588236,0.8919656658823528,0.8920207894117648,0.8920715447058823,0.8921184799999999,0.8921672082352942,0.8922148429411766,0.8922567217647058,0.8922941711764707,0.8923254388235293,0.8923506623529411,0.892371197647059,0.8923872823529413,0.8924017782352941,0.8924342176470589,0.892467314117647,0.8924954341176471,0.892518511764706,0.8925414352941177,0.8925617364705882,0.8925690070588236,0.8925657747058823,0.8925663217647059,0.8925647929411765,0.8925596376470589,0.8925492176470589,0.8925413617647059,0.8925349823529412,0.8925313035294118,0.8925319152941177,0.892534095882353,0.8925148294117647,0.8924966288235294,0.8924819523529411,0.8924714235294118,0.8924602470588237,0.8924511264705882,0.8924517588235293,0.8924617411764706,0.89246365375,0.8924673273333333,0.8924746464285713,0.8924888453846153,0.8925011074999998,0.8925127536363635,0.892521893,0.8925263144444444
pNuLoCDScore	0.0339777756862745,0.02524699333333333,0.020944085686274483,0.030963728627450976,0.04462712121568624,0.0610161849803921,0.07890683533333329,0.0976095739803921,0.11527771892156854,0.13185310985294116,0.14738332917112293,0.1582594274264705,0.16696273871040718,0.1739711726680672,0.1771705491568627,0.17839394715073534,0.19758517911764711,0.2321523755882352,0.2652285538235294,0.28511635205882346,0.3026125759411765,0.31580770100000005,0.3278307494705882,0.3372074184705882,0.3473868458823529,0.3592616958823528,0.3734148229411764,0.3851697552941176,0.399424174117647,0.4131975476470587,0.42804859705882353,0.4443976558823527,0.4413706088235293,0.4206398652941177,0.3971388452941176,0.3694010394117646,0.33930293470588235,0.31056506941176465,0.28134315235294116,0.2537479976470588,0.22628197411764717,0.19837289117647072,0.17028317823529426,0.14399154000000003,0.117723031764706,0.09259684058823547,0.06703107588235291,0.04211210235294138,0.019546325882353055,0.016582525882352983,0.012944622352941249,0.011959375294117836,0.022829320601307213,0.01946791824836605,0.014990424130718966,0.01772870001307192,0.02770868060130724,0.042200148836601364,0.05665009907189544,0.07213231701307193,0.08697098348366017,0.10134124978235295,0.11093281397326205,0.11934473344607846,0.1254966793800905,0.13218933702941177,0.13599843652156862,0.1415282589816176,0.16639520817647058,0.19688876229411764,0.22247422464705882,0.240281827,0.24881215699999995,0.25468393758823527,0.25863993441176475,0.26156150352941177,0.26415666823529416,0.26978393588235294,0.2781881141176471,0.28658905941176477,0.29429418411764713,0.3012676835294118,0.30505056352941184,0.309595781764706,0.2941352629411765,0.26264950235294116,0.23763723647058826,0.21557891117647077,0.19767473000000013,0.17803781411764696,0.15951270470588236,0.14090496470588237,0.12297340999999995,0.1035314623529413,0.08356043823529413,0.06371721470588232,0.04509870764705892,0.026656038235294055,0.01049286823529405,-0.004390560588235504,-0.021667860588235333,-0.024285310588235354,-0.026667371764705905,-0.03222964117647065,-0.03741224705882351,-0.04089679588235262,-0.042984299411764626,-0.04515697647058814,-0.04735304705882348,-0.049130085294117776,-0.051096492352941225,-0.05185024352941192,-0.051845914117647274,-0.05235679999999998,-0.05212954411764714,-0.05159812823529408,-0.046533995294117614,-0.035800449411764634,-0.023337002352941227,-0.009877703529411863,0.0021656323529410937,0.009781639411764464,0.014717985882352846,0.01912206058823518,0.02468141764705878,0.030184279411764825,0.03613788823529418,0.041443535294117706,0.0445909200000002,0.04765443764705868,0.049558072941176534,0.0512140805882354,0.054818582352941125,0.053926442352941195,0.051021371764706,0.04779598352941172,0.043168141764705736,0.04047328764705871,0.03922287470588237,0.03863857941176474,0.037332779411764716,0.03544893529411741,0.03368147058823512,0.03132770000000007,0.030147878823529317,0.028971052941176523,0.028380415294117722,0.02829514235294117,0.025091737647058854,0.017200386470588303,0.011599821764705753,0.005426585882353008,-0.00032886705882340106,-0.004937657058823319,-0.008142581176470598,-0.010962236470588138,-0.013812484117646906,-0.01679690588235283,-0.01936106470588217,-0.021734640588235266,-0.023548633529411722,-0.024768985882352768,-0.025217335294117627,-0.026434662352941007,-0.02831032411764689,-0.022693899411764806,-0.018640967647058804,-0.01636486294117656,-0.014137588823529446,-0.013134025882353129,-0.012215228235294306,-0.011396442941176699,-0.010556887647058977,-0.009256854117647095,-0.008063265882353066,-0.00715801941176486,-0.006539028823529525,-0.006236568235294282,-0.0067273894117648725,-0.006726051764706087,-0.00486850235294134,-0.004140158235294122,-0.006493587647058763,-0.00519424294117643,-0.0036224917647058597,-0.0011748523529411248,0.0008856988235296237,0.0016510488235293996,0.0018791305882351894,0.00168855999999995,0.0009044423529411816,0.00037408058823529267,-0.0002993964705882979,-0.00116314117647065,-0.0018221623529410813,-0.0023232858823528657,-0.005314402941176355,-0.007270528823529299,-0.0043661041176470405,-0.0024246788235293693,0.0013569823529412384,0.005470354117647069,0.010021747647058876,0.016361092352941475,0.0238093811764708,0.031995005882353156,0.040196888235294215,0.04773831647058824,0.05501201176470594,0.06300084294117658,0.07147074999999992,0.07949734823529409,0.08944986058823512,0.09837746588235285,0.10139183882352931,-0.03384748545098035,-0.049193745450980375,-0.0636005519215686,-0.07238412639215681,-0.07331938050980388,-0.0729255266862745,-0.07292530403921567,-0.07347024815686272,-0.07396502521568626,-0.06452569685294117,-0.057126325716577525,-0.05249963687745099,-0.049687944312217194,-0.04765513707142856,-0.04509741526666666,-0.04145798675367646,-0.036174490176470606,-0.0204693378235294,-0.006165570176470597,0.002172512529411738,0.0027206605294117364,0.0017218049411764774,0.0007915657647058899,-1.9860411764702213e-05,-0.0010839586470588053,-0.0026996171764705756,-0.0050810045294117645,-0.007151307294117629,-0.00851737729411764,-0.00984369023529412,-0.01100426176470587,-0.013211171235294139,-0.017194697764705877,-0.020622796588235293,-0.021452935411764684,-0.02145439364705881,-0.02113937752941175,-0.020785111058823524,-0.020308786882352936,-0.019381331529411752,-0.01824379182352942,-0.017593620941176488,-0.01655437076470588,-0.015565680470588233,-0.014110581705882363,-0.012608285235294142,-0.010941582529411784,-0.009243526352941192,-0.006795186000000009,-0.0033509404117647024,-0.0017327830000000016,-0.0004998538235294198,0.00038617300000000354,0.001459291823529399,0.0027206618235293967,0.0041932391176470185,0.005487588529411752,0.0066731232352941205,0.007806352352941151,0.00887744247058822,0.009794755470588223,0.010391635235294128,0.011141347588235304,0.011966933764705909,0.012131082941176471,0.011930693470588241,0.011732526058823536,0.010924944764705888,0.009969575235294112,0.008984342176470594,0.00817542123529412,0.007245842411764708,0.006448598294117661,0.005808816529411773,0.005247340764705899,0.004989705470588246,0.004966101352941191,0.005224077823529405,0.005541082529411767,0.0056784839999999975,0.008067121294117657,0.011478123117647065,0.01461715817647058,0.01809811382352941,0.02183738652941178,0.025063644294117657,0.028378257941176488,0.03147999241176473,0.034612393294117666,0.03713445211764707,0.03957538617647062,0.041771606058823546,0.04390412017647061,0.045929167470588256,0.04772845888235297,0.04969283652941177,0.0493189497647059,0.046007563,0.04202686264705882,0.03816421029411762,0.034442271470588245,0.03132174205882353,0.028540854647058814,0.025623567235294104,0.02258345252941174,0.019987636352941138,0.017780582823529387,0.015628663764705855,0.01333496494117642,0.010692984352941137,0.007837544117647033,0.005002338235294113,0.0016087341176470316,0.0014063717647058716,0.00226955941176471,0.002424666470588255,0.0023042123529411485,0.002078294117647067,0.001300385882352928,0.0006832500000000241,0.0003945676470588355,0.000149483529411798,-0.0006518229411764664,-0.001546591176470602,-0.0024920382352940917,-0.003841675588235227,-0.005696467941176453,-0.006815984999999969,-0.007261900882352956,-0.007838540882352946,-0.009342783235294139,-0.01032425735294118,-0.01024250147058825,-0.01007540500000001,-0.010220897941176421,-0.010293289705882364,-0.010397636176470604,-0.010984596176470629,-0.01128435147058826,-0.01121037735294117,-0.010941150294117657,-0.009729461764705932,-0.007027355000000013,-0.004280927352941194,-0.002242982647058772,-0.0014415708823529438,-0.0009859426470588128,-0.0005132475882352605,-0.001659425823529348,-0.0029013664117646942,-0.00337453782352945,-0.0036956719411764816,-0.004159896411764702,-0.004943538764705865,-0.005752460529411765,-0.006786616411764687,-0.008035049705882341,-0.009558280882352943,-0.012255304117647081,-0.015958947058823572,-0.01930841000000004,-0.021933689705882373,-0.02330560235294117,-0.023341225294117668,-0.022762804470588274,-0.021601525058823512,-0.02119533599999998,-0.021518635176470582,-0.021714614235294097,-0.021106408588235287,-0.01990661623529412,-0.01889884594117648,-0.01786808205882355,-0.016639433764705905,-0.014868600235294127,-0.012611294941176465,-0.010572237588235292,-0.007947861411764692,-0.005489164058823548,-0.003565998823529426,-0.001629240941176488,-0.000558045647058858,0.0009489272941176213,0.003329336235294106,0.005512256529411744,0.007559965588235296,0.008708249705882368,0.010051936235294115,0.011887608294117669,0.013561748823529438,0.015073989705882362,0.015985109411764717,0.01722660794117646,0.01799958588235294,0.018054404117647083,0.017549579411764715,0.016606288941176495,0.015439377529411769,0.014524548705882365,0.013132171294117673,0.011474780882352958,0.009819255882352954,0.008239519117647073,0.0069010975882353165,0.005095770470588221,0.0031533192941176486,0.0011796372352941287,-0.0005600240000000062,-0.0007023684117647144,-0.002055798705882364,-0.002895309882352967,-0.0038033407647058842,-0.004211131941176463,-0.003857341117647059,-0.0035100799411764833,-0.0029193993529411932,-0.0019836339411764825,-0.0007231297647058987,0.0008190746470588262,0.002102605529411744,0.0031925647058823614,0.004133720000000007,0.005393741764705903,0.00684412505882355,0.006663736882352972,0.006488022764705906,0.007362862176470628,0.00881275394117649,0.010386958058823517,0.011390247470588241,0.011730142176470601,0.011780106294117673,0.011537459823529439,0.010930131235294155,0.010024580058823507,0.009229054470588263,0.00884154917647062,0.0088857085882353,0.009066046235294126,0.009194467999999983,0.018608397058823542,0.027282803529411773,0.034649952352941146,0.04182242588235291,0.049158681764705864,0.05604072529411763,0.06320720294117646,0.07070734294117645,0.07852520294117646,0.08660089411764701,0.09515878647058826,0.10380644823529406,0.11207543117647056,0.12024383529411767,0.12803462176470587,0.13559086470588239,0.13367698235294115,0.12442539764705876,0.11747496882352937,0.11031332176470585,-0.04110438215686277,-0.050523203921568616,-0.05681694627450981,-0.06197325039215684,-0.065576688627451,-0.06910131392156862,-0.07352665274509804,-0.07784591803921564,-0.08080928509803922,-0.0765362382941176,-0.07146856331550797,-0.06559890906862745,-0.058651810995475145,-0.05137757731092438,-0.0449353873333333,-0.03957191856617642,-0.033409497058823484,-0.021699327058823492,-0.013795119411764617,-0.007517696470588225,-0.003577654117646961,0.00043425411764713706,0.005562245294117696,0.010869661764705857,0.014628980588235307,0.017197955882352928,0.018394354705882354,0.018953291764705865,0.01802834882352941,0.01588690705882348,0.01377771294117644,0.011776267058823453,0.007922278235294067,0.0029330570588235183,-0.0004994870588235778,-0.0030149035294117776,-0.004254085882352987,-0.004846619411764785,-0.005696125882352937,-0.007153924117647065,-0.008288665882352914,-0.009157632352941175,-0.009887520000000039,-0.010556502941176438,-0.010522217647058796,-0.009811860588235244,-0.009252296691176443,-0.008859088784313685,-0.008007192352941145,-0.0048355271040724235,-0.002100003921568644,-7.42338502673634e-05,0.0014365982941176303,0.001963924771241854,0.002110778888888859,0.0025804259477124336,0.0029192159477124113,0.003229750653594793,0.0034201547712418567,0.003659568300653615,0.0037879694771242034,0.0036606783006536137
pNuLoCRank	High
UniprotNLSRegion	
UniprotNESRegion	
SeqNLSRegion	
SeqNLSPMID	
nlsdbnes_region	
nlsdbnls_region	25...29;76...81
validnes_region	
nesbase_region	
Sequence	MTCHKRYKIQKKVREHHRKLRKEAKKRGHKKPRKDPGVPNSAPFKEALLREAELRKQRLEELKQQQKLDRQKELEKKRKLETNPDIKPSNVEPMEKEFGLCKTENKAKSGKQNSKKLYCQELKKVIEASDVVLEVLDARDPLGCRCPQVEEAIVQSGQKKLVLILNKSDLVPKENLESWLNYLKKELPTVVFRASTKPKDKGKITKRVKAKKNAAPFRSEVCFGKEGLWKLLGGFQETCSKAIRVGVIGFPNVGKSSIINSLKQEQMCNVGVSMGLTRSMQVVPLDKQITIIDSPSFIVSPLNSSSALALRSPASIEVVKPMEAASAILSQADARQVVLKYTVPGYRNSLEFFTVLAQRRGMHQKGGIPNVEGAAKLLWSEWTGASLAYYCHPPTSWTPPPYFNESIVVDMKSGFNLEELEKNNAQSIRAIKGPHLANSILFQSSGLTNGIIEEKDIHEELPKRKERKQEEREDDKDSDQETVDEEVDENSSGMFAAEETGEALSEETTAGEQSTRSFILDKIIEEDDAYDFSTDYV
PTM	Acetylation:17,46,57,108,114,128,135,196,237,242,253,332,352,377,434,467;Methylation:75,88,135,179,196,230,275,332,352,434,475,534;Phosphorylation:53,273,318,342,490,494,517,529,548;SUMOylation:57,91,99,108,114,135,136,171,172,179,185,196,224,237,242,253,267,275,332,377,434,444,467,534;Ubiquitylation:57,75,99,114,128,135,171,179,197,237,253,267,275,299,332,377,434
