UniprotID	Q9BVP2
Accession	Q9BVP2;B2RDC1;Q5PU80;Q96SV6;Q96SV7;Q9UJY0
EntryName	GNL3_HUMAN
ProteinName	Guanine nucleotide-binding protein-like 3 (E2-induced gene 3 protein) (Novel nucleolar protein 47) (NNP47) (Nucleolar GTP-binding protein 3) (Nucleostemin)
GeneName	GNL3 E2IG3 NS
Length	549
Function	May be required to maintain the proliferative capacity of stem cells. Stabilizes MDM2 by preventing its ubiquitination, and hence proteasomal degradation (By similarity).
Subcellular Location	Nucleus; Nucleus; Nucleolus
Disorder	0.9230,0.9249,0.9230,0.9211,0.8375,0.8741,0.8792,0.8853,0.8162,0.8279,0.7718,0.7799,0.7755,0.7718,0.6906,0.6948,0.7250,0.7547,0.7799,0.7951,0.7951,0.7369,0.7415,0.7459,0.7250,0.7982,0.7755,0.7755,0.7755,0.8462,0.8655,0.9057,0.9013,0.9126,0.9151,0.9381,0.9287,0.9503,0.9346,0.8872,0.8991,0.9057,0.9329,0.9211,0.9329,0.8942,0.9013,0.8894,0.8765,0.8279,0.7755,0.7505,0.7331,0.7120,0.6620,0.5807,0.5854,0.5901,0.5665,0.5707,0.5665,0.5211,0.4901,0.4369,0.4507,0.4256,0.5139,0.5139,0.5296,0.4831,0.5342,0.5992,0.5992,0.6136,0.6227,0.5620,0.6183,0.6183,0.6136,0.6136,0.6089,0.5992,0.6043,0.6183,0.7080,0.7369,0.7289,0.6322,0.6269,0.6620,0.7289,0.7505,0.6755,0.6620,0.6948,0.6948,0.7547,0.7629,0.7547,0.6427,0.6375,0.5577,0.5211,0.5296,0.5296,0.5055,0.4940,0.4940,0.5533,0.5493,0.5176,0.5211,0.5017,0.5665,0.5951,0.5620,0.5707,0.5807,0.5098,0.4441,0.4507,0.4541,0.5098,0.5456,0.5419,0.5382,0.4864,0.4017,0.3983,0.3948,0.3948,0.3983,0.3426,0.2884,0.2224,0.2094,0.1583,0.1137,0.1184,0.1424,0.1969,0.2783,0.3019,0.2399,0.2988,0.2094,0.2094,0.1731,0.2645,0.2680,0.2258,0.2258,0.2224,0.2541,0.2328,0.2364,0.2399,0.2918,0.3529,0.3460,0.3631,0.3599,0.2884,0.2034,0.2034,0.1424,0.1643,0.1731,0.2541,0.2224,0.2258,0.2164,0.1671,0.1914,0.2064,0.2817,0.3460,0.2752,0.2817,0.2783,0.2034,0.1501,0.1583,0.1476,0.1373,0.1881,0.2541,0.3215,0.2399,0.2715,0.2783,0.2129,0.2164,0.1791,0.1611,0.1424,0.1373,0.1298,0.1852,0.2064,0.2064,0.2884,0.3529,0.3426,0.4220,0.4087,0.4119,0.4119,0.4149,0.4186,0.3910,0.3566,0.4186,0.4801,0.6089,0.5620,0.5577,0.5992,0.4725,0.4766,0.4441,0.4541,0.3774,0.2988,0.1969,0.1969,0.2783,0.2849,0.2849,0.2034,0.1852,0.1852,0.1449,0.0929,0.0929,0.0870,0.0543,0.0690,0.0605,0.1206,0.0704,0.0719,0.0690,0.0851,0.0835,0.1554,0.1092,0.1092,0.0676,0.0389,0.0646,0.0555,0.0662,0.1184,0.1251,0.1251,0.1251,0.2064,0.1969,0.1184,0.0676,0.1206,0.1184,0.0719,0.0870,0.1476,0.1501,0.2129,0.1881,0.1823,0.2783,0.2129,0.3182,0.2258,0.2129,0.2503,0.2503,0.1731,0.1823,0.1942,0.2783,0.3356,0.3286,0.2680,0.2849,0.3117,0.2224,0.2258,0.2224,0.2575,0.2436,0.2364,0.2164,0.1424,0.2064,0.2064,0.2645,0.2609,0.2364,0.1554,0.1048,0.1048,0.1449,0.0870,0.1349,0.1852,0.1583,0.2258,0.1881,0.1206,0.0967,0.0985,0.0985,0.1554,0.2575,0.2164,0.2129,0.1206,0.1349,0.1643,0.1759,0.2328,0.2645,0.2002,0.2988,0.2575,0.2292,0.2292,0.2064,0.1554,0.1583,0.1823,0.2680,0.2328,0.2541,0.1969,0.2328,0.2470,0.2715,0.1942,0.1823,0.2470,0.1611,0.1476,0.1251,0.1323,0.1554,0.1115,0.1162,0.1476,0.2193,0.2193,0.2436,0.1424,0.0929,0.0888,0.0719,0.0414,0.0327,0.0518,0.0799,0.1323,0.1323,0.1791,0.1759,0.2503,0.2224,0.2258,0.3215,0.2328,0.2470,0.2645,0.2817,0.2783,0.3872,0.4725,0.4369,0.5055,0.5098,0.4652,0.3599,0.3566,0.3667,0.2715,0.3149,0.3117,0.2817,0.2817,0.2064,0.1852,0.1914,0.1092,0.0704,0.1092,0.1184,0.1349,0.1611,0.1823,0.1137,0.1759,0.2715,0.3983,0.4292,0.3356,0.3426,0.3460,0.3599,0.3840,0.3117,0.3321,0.3019,0.3948,0.4507,0.5055,0.4979,0.4685,0.3494,0.3566,0.2918,0.4051,0.4119,0.3182,0.3053,0.2645,0.3529,0.4582,0.4220,0.4186,0.4186,0.4220,0.4685,0.5055,0.4220,0.4330,0.4476,0.4831,0.4801,0.5055,0.4725,0.5577,0.5342,0.4476,0.4507,0.3426,0.3631,0.3529,0.3392,0.3631,0.2884,0.2951,0.3740,0.3872,0.3426,0.3460,0.3774,0.3910,0.3460,0.3599,0.3631,0.3872,0.3948,0.4149,0.4149,0.5176,0.6089,0.5707,0.5533,0.5854,0.5620,0.6269,0.6427,0.6576,0.6755,0.7415,0.8375,0.8343,0.8279,0.8235,0.8279,0.8828,0.8894,0.8872,0.8872,0.9308,0.8765,0.8991,0.9211,0.9396,0.8966,0.9151,0.9362,0.9346,0.9230,0.9106,0.9230,0.9013,0.8198,0.7916,0.7916,0.7982,0.8198,0.8085,0.8013,0.8013,0.7799,0.7672,0.7505,0.7505,0.7505,0.8125,0.8013,0.7629,0.7595,0.7799,0.7951,0.7881,0.8085,0.8713,0.8853,0.8313,0.7547,0.6576,0.6712,0.6375,0.5419,0.4979,0.5951,0.6183,0.6089,0.6043,0.5807,0.5055,0.5382,0.4507,0.4330,0.4256,0.4409,0.3807,0.3529,0.3286,0.3840,0.4220,0.4725,0.4330,0.4369,0.4901,0.5665,0.5055,0.4409
ExposeBuried	1,1,1,1,1,0,1,1,0,1,1,1,0,1,0,1,1,1,0,1,0,1,1,1,0,1,1,1,0,1,1,0,1,1,1,1,1,1,1,1,1,1,1,1,1,1,1,1,1,1,1,1,0,0,1,1,1,1,0,1,0,1,1,0,1,1,1,1,1,0,0,1,1,0,1,1,1,1,1,0,1,1,1,1,1,1,1,1,1,1,1,1,1,1,0,1,1,0,1,1,1,1,1,1,1,1,1,1,1,1,0,0,1,1,1,1,1,0,1,1,0,1,1,1,1,1,1,1,0,0,0,1,1,0,0,1,0,0,1,1,0,1,0,0,0,0,0,0,1,0,1,0,0,0,1,0,0,0,1,1,0,0,1,0,0,1,1,1,1,1,1,1,0,0,0,0,0,0,1,0,1,0,0,1,1,1,0,0,1,1,0,0,1,0,0,1,1,1,0,1,1,0,0,0,0,0,0,0,1,1,1,1,1,1,1,1,1,1,1,0,1,1,1,1,1,1,1,1,1,1,0,1,1,1,0,1,1,1,1,0,0,1,1,0,1,1,0,1,1,0,1,1,1,1,0,0,0,0,0,0,0,0,0,1,0,0,1,1,1,0,0,1,0,0,1,1,1,1,1,0,1,0,0,1,1,1,1,1,0,1,0,0,0,1,0,0,0,1,1,1,0,0,0,0,0,0,0,0,0,0,0,0,1,1,1,1,1,1,1,1,1,0,1,1,0,0,1,0,1,1,0,1,1,1,1,0,0,1,0,0,0,1,1,0,1,1,1,1,0,0,1,1,0,1,0,1,1,0,1,1,0,1,1,0,0,1,0,0,0,1,1,1,1,1,1,1,1,1,1,1,1,1,0,1,1,0,0,1,1,0,0,1,0,0,1,1,0,1,0,0,0,0,0,1,0,0,1,1,1,1,0,0,1,0,1,1,1,1,0,0,1,1,0,1,1,1,0,1,1,1,1,0,1,1,1,1,1,1,1,1,1,0,1,1,0,1,1,0,0,1,1,0,0,0,1,1,1,0,0,1,1,1,0,0,1,1,1,1,0,1,1,1,0,1,1,1,1,1,1,1,1,1,1,1,1,1,1,1,1,1,1,1,1,1,0,1,1,1,0,1,1,1,1,1,0,0,0,0,0,1,1,0,0,1,1,0,1,1,1,0,1,1,1,1,1,1,0,1,1,0,0,0,1,1,0,0,1,1,1,1,1,0,1,0,1,1,1,1,1
SurfaceAccessbility	0.845,0.685,0.508,0.481,0.570,0.167,0.540,0.573,0.279,0.472,0.555,0.457,0.244,0.374,0.142,0.373,0.503,0.401,0.243,0.500,0.113,0.360,0.513,0.448,0.099,0.413,0.442,0.320,0.158,0.634,0.575,0.157,0.477,0.639,0.603,0.293,0.497,0.596,0.555,0.547,0.463,0.485,0.320,0.366,0.547,0.677,0.298,0.450,0.527,0.344,0.525,0.353,0.274,0.239,0.483,0.311,0.405,0.613,0.265,0.530,0.269,0.409,0.601,0.278,0.650,0.315,0.356,0.510,0.573,0.175,0.188,0.567,0.498,0.119,0.541,0.624,0.442,0.528,0.575,0.201,0.509,0.567,0.448,0.528,0.579,0.470,0.539,0.560,0.602,0.477,0.454,0.278,0.681,0.339,0.242,0.581,0.619,0.168,0.315,0.449,0.652,0.540,0.328,0.615,0.393,0.313,0.473,0.517,0.607,0.407,0.192,0.247,0.484,0.312,0.332,0.568,0.402,0.163,0.572,0.504,0.177,0.566,0.686,0.562,0.319,0.400,0.349,0.315,0.188,0.171,0.085,0.481,0.384,0.032,0.232,0.476,0.077,0.059,0.548,0.300,0.169,0.357,0.050,0.058,0.052,0.182,0.046,0.156,0.286,0.173,0.400,0.266,0.264,0.183,0.317,0.296,0.300,0.151,0.484,0.389,0.045,0.259,0.450,0.142,0.048,0.434,0.688,0.446,0.516,0.483,0.320,0.356,0.074,0.029,0.034,0.033,0.029,0.147,0.326,0.169,0.470,0.152,0.174,0.381,0.491,0.607,0.257,0.165,0.563,0.393,0.039,0.157,0.555,0.194,0.043,0.516,0.655,0.473,0.147,0.284,0.363,0.040,0.063,0.050,0.218,0.223,0.139,0.237,0.559,0.476,0.690,0.605,0.314,0.578,0.468,0.432,0.373,0.600,0.452,0.276,0.477,0.538,0.494,0.496,0.495,0.420,0.553,0.398,0.376,0.463,0.315,0.448,0.418,0.268,0.199,0.355,0.409,0.498,0.401,0.108,0.137,0.497,0.289,0.093,0.477,0.530,0.175,0.409,0.567,0.154,0.334,0.595,0.475,0.343,0.070,0.205,0.028,0.035,0.029,0.043,0.051,0.133,0.161,0.379,0.166,0.258,0.365,0.351,0.346,0.177,0.123,0.372,0.309,0.151,0.457,0.619,0.502,0.517,0.292,0.117,0.398,0.130,0.270,0.454,0.484,0.413,0.408,0.334,0.257,0.355,0.269,0.149,0.207,0.355,0.140,0.288,0.185,0.416,0.505,0.348,0.086,0.204,0.098,0.067,0.270,0.105,0.262,0.244,0.181,0.210,0.230,0.248,0.470,0.349,0.402,0.411,0.646,0.437,0.323,0.323,0.333,0.168,0.541,0.343,0.181,0.187,0.372,0.096,0.501,0.462,0.116,0.487,0.518,0.425,0.416,0.201,0.098,0.331,0.230,0.062,0.102,0.405,0.439,0.217,0.346,0.279,0.495,0.392,0.075,0.134,0.604,0.439,0.179,0.636,0.150,0.597,0.488,0.196,0.583,0.398,0.058,0.390,0.489,0.056,0.046,0.440,0.221,0.088,0.099,0.426,0.422,0.361,0.409,0.382,0.445,0.477,0.577,0.485,0.594,0.429,0.458,0.613,0.227,0.524,0.434,0.082,0.048,0.442,0.314,0.054,0.058,0.491,0.273,0.091,0.344,0.578,0.256,0.378,0.082,0.194,0.062,0.165,0.066,0.314,0.129,0.201,0.537,0.727,0.504,0.421,0.261,0.189,0.431,0.309,0.353,0.439,0.438,0.603,0.215,0.208,0.419,0.480,0.104,0.537,0.743,0.604,0.170,0.608,0.290,0.705,0.507,0.133,0.498,0.587,0.423,0.317,0.554,0.643,0.429,0.352,0.607,0.217,0.305,0.586,0.196,0.572,0.468,0.091,0.174,0.479,0.363,0.180,0.153,0.166,0.311,0.440,0.542,0.288,0.143,0.368,0.542,0.320,0.188,0.147,0.557,0.496,0.516,0.494,0.120,0.285,0.661,0.571,0.121,0.407,0.649,0.432,0.505,0.677,0.506,0.492,0.554,0.621,0.577,0.467,0.619,0.598,0.540,0.630,0.556,0.505,0.529,0.513,0.635,0.363,0.142,0.455,0.662,0.508,0.131,0.491,0.682,0.570,0.404,0.526,0.284,0.251,0.170,0.220,0.163,0.532,0.529,0.280,0.265,0.622,0.313,0.137,0.451,0.641,0.512,0.294,0.418,0.405,0.402,0.517,0.506,0.376,0.257,0.309,0.380,0.205,0.100,0.115,0.405,0.391,0.082,0.108,0.574,0.572,0.496,0.489,0.321,0.258,0.457,0.166,0.506,0.455,0.584,0.335,0.727
SecondStructure	C,C,C,C,C,A,A,A,A,A,A,A,C,C,A,A,A,A,A,A,A,A,A,A,A,A,A,A,A,A,A,A,A,A,A,A,A,A,A,C,A,C,C,C,C,C,C,C,C,C,C,C,C,C,C,C,C,C,C,C,C,C,C,C,C,C,C,C,A,A,A,A,A,A,A,A,A,A,A,A,A,A,A,A,A,A,A,A,A,C,C,C,C,C,C,C,C,C,C,C,C,C,C,C,C,A,A,A,A,A,A,A,A,A,A,A,A,A,A,A,A,A,A,A,A,A,A,A,A,A,A,A,A,A,A,A,A,A,A,A,C,C,B,B,B,B,B,B,C,C,C,C,C,C,C,C,C,C,A,A,A,A,A,A,A,A,A,C,C,C,C,C,B,B,B,B,B,B,C,C,C,C,C,C,A,A,A,A,A,A,A,A,A,A,A,A,A,A,C,C,B,B,B,B,B,B,C,C,C,C,C,C,C,C,C,C,C,C,C,A,A,A,A,C,C,C,C,C,C,C,A,A,A,A,A,C,A,A,A,A,A,A,A,A,A,C,C,C,C,C,C,C,C,C,B,B,B,B,B,B,B,C,C,C,C,C,C,A,A,A,A,A,A,A,C,C,C,C,B,B,B,B,C,C,C,C,C,C,C,C,B,B,B,B,B,C,C,C,C,C,C,B,B,B,C,C,C,C,C,C,C,C,C,C,C,C,C,C,C,A,A,C,C,C,C,B,B,B,C,C,C,C,C,C,C,A,A,A,A,A,A,A,A,C,C,A,A,A,A,A,A,A,C,C,C,C,C,C,C,C,A,A,A,A,A,A,A,A,A,A,A,A,C,C,C,C,C,C,C,C,C,C,A,A,A,A,A,A,A,A,A,A,A,A,A,C,C,C,B,B,B,B,B,C,C,C,C,C,C,C,C,C,C,C,C,C,A,A,A,A,A,A,A,A,A,C,C,C,A,A,A,A,A,A,A,A,A,A,C,C,C,C,C,C,C,C,C,A,A,A,A,A,A,A,A,C,C,C,C,C,C,C,C,C,C,C,C,A,A,A,A,A,A,C,A,A,A,A,A,A,A,A,A,A,C,C,C,C,C,C,C,A,A,A,A,A,A,A,A,C,C,C,C,C,C,C,B,A,A,A,A,A,A,A,A,A,A,A,A,A,C,C,C,C,C,C,A,A,A,A,A,A,A,A,A,A,C,C,C,C,C,C,C,C,C,C,C,C,C
Hydropathy	1.9,-3.9,-4.5,-1.6,-3.9,3.8,-3.9,-3.9,1.8,-0.8,-3.9,-4.5,1.9,-0.7,2.5,-3.2,-3.9,-4.5,-1.3,-3.9,4.5,-3.5,-3.9,-3.9,4.2,-4.5,-3.5,-3.2,-3.2,-4.5,-3.9,3.8,-4.5,-3.9,-3.5,1.8,-3.9,-3.9,-4.5,-0.4,-3.2,-3.9,-3.9,-1.6,-4.5,-3.9,-3.5,-1.6,-0.4,4.2,-1.6,-3.5,-0.8,1.8,-1.6,2.8,-3.9,-3.5,1.8,3.8,3.8,-4.5,-3.5,1.8,-3.5,3.8,-4.5,-3.9,-3.5,-4.5,3.8,-3.5,-3.5,3.8,-3.9,-3.5,-3.5,-3.5,-3.9,3.8,-3.5,-4.5,-3.5,-3.9,-3.5,3.8,-3.5,-3.9,-3.9,-4.5,-3.9,3.8,-3.5,-0.7,-3.5,-1.6,-3.5,4.5,-3.9,-1.6,-0.8,-3.5,4.2,-3.5,-1.6,1.9,-3.5,-3.9,-3.5,2.8,-0.4,3.8,2.5,-3.9,-0.7,-3.5,-3.5,-3.9,1.8,-3.9,-0.8,-0.4,-3.9,-3.5,-3.5,-0.8,-3.9,-3.9,3.8,-1.3,2.5,-3.5,-3.5,3.8,-3.9,-3.9,4.2,4.5,-3.5,1.8,-0.8,-3.5,4.2,4.2,3.8,-3.5,4.2,3.8,-3.5,1.8,-4.5,-3.5,-1.6,3.8,-0.4,2.5,-4.5,2.5,-1.6,-3.5,4.2,-3.5,-3.5,1.8,4.5,4.2,-3.5,-0.8,-0.4,-3.5,-3.9,-3.9,3.8,4.2,3.8,4.5,3.8,-3.5,-3.9,-0.8,-3.5,3.8,4.2,-1.6,-3.9,-3.5,-3.5,3.8,-3.5,-0.8,-0.9,3.8,-3.5,-1.3,3.8,-3.9,-3.9,-3.5,3.8,-1.6,-0.7,4.2,4.2,2.8,-4.5,1.8,-0.8,-0.7,-3.9,-1.6,-3.9,-3.5,-3.9,-0.4,-3.9,4.5,-0.7,-3.9,-4.5,4.2,-3.9,1.8,-3.9,-3.9,-3.5,1.8,1.8,-1.6,2.8,-4.5,-0.8,-3.5,4.2,2.5,2.8,-0.4,-3.9,-3.5,-0.4,3.8,-0.9,-3.9,3.8,3.8,-0.4,-0.4,2.8,-3.5,-3.5,-0.7,2.5,-0.8,-3.9,1.8,4.5,-4.5,4.2,-0.4,4.2,4.5,-0.4,2.8,-1.6,-3.5,4.2,-0.4,-3.9,-0.8,-0.8,4.5,4.5,-3.5,-0.8,3.8,-3.9,-3.5,-3.5,-3.5,1.9,2.5,-3.5,4.2,-0.4,4.2,-0.8,1.9,-0.4,3.8,-0.7,-4.5,-0.8,1.9,-3.5,4.2,4.2,-1.6,3.8,-3.5,-3.9,-3.5,4.5,-0.7,4.5,4.5,-3.5,-0.8,-1.6,-0.8,2.8,4.5,4.2,-0.8,-1.6,3.8,-3.5,-0.8,-0.8,-0.8,1.8,3.8,1.8,3.8,-4.5,-0.8,-1.6,1.8,-0.8,4.5,-3.5,4.2,4.2,-3.9,-1.6,1.9,-3.5,1.8,1.8,-0.8,1.8,4.5,3.8,-0.8,-3.5,1.8,-3.5,1.8,-4.5,-3.5,4.2,4.2,3.8,-3.9,-1.3,-0.7,4.2,-1.6,-0.4,-1.3,-4.5,-3.5,-0.8,3.8,-3.5,2.8,2.8,-0.7,4.2,3.8,1.8,-3.5,-4.5,-4.5,-0.4,1.9,-3.2,-3.5,-3.9,-0.4,-0.4,4.5,-1.6,-3.5,4.2,-3.5,-0.4,1.8,1.8,-3.9,3.8,3.8,-0.9,-0.8,-3.5,-0.9,-0.7,-0.4,1.8,-0.8,3.8,1.8,-1.3,-1.3,2.5,-3.2,-1.6,-1.6,-0.7,-0.8,-0.9,-0.7,-1.6,-1.6,-1.6,-1.3,2.8,-3.5,-3.5,-0.8,4.5,4.2,4.2,-3.5,1.9,-3.9,-0.8,-0.4,2.8,-3.5,3.8,-3.5,-3.5,3.8,-3.5,-3.9,-3.5,-3.5,1.8,-3.5,-0.8,4.5,-4.5,1.8,4.5,-3.9,-0.4,-1.6,-3.2,3.8,1.8,-3.5,-0.8,4.5,3.8,2.8,-3.5,-0.8,-0.8,-0.4,3.8,-0.7,-3.5,-0.4,4.5,4.5,-3.5,-3.5,-3.9,-3.5,4.5,-3.2,-3.5,-3.5,3.8,-1.6,-3.9,-4.5,-3.9,-3.5,-4.5,-3.9,-3.5,-3.5,-3.5,-4.5,-3.5,-3.5,-3.5,-3.9,-3.5,-0.8,-3.5,-3.5,-3.5,-0.7,4.2,-3.5,-3.5,-3.5,4.2,-3.5,-3.5,-3.5,-0.8,-0.8,-0.4,1.9,2.8,1.8,1.8,-3.5,-3.5,-0.7,-0.4,-3.5,1.8,3.8,-0.8,-3.5,-3.5,-0.7,-0.7,1.8,-0.4,-3.5,-3.5,-0.8,-0.7,-4.5,-0.8,2.8,4.5,3.8,-3.5,-3.9,4.5,4.5,-3.5,-3.5,-3.5,-3.5,1.8,-1.3,-3.5,2.8,-0.8,-0.7,-3.5,-1.3,4.2
Polar	0,1,1,0,1,0,1,1,0,1,1,1,0,1,0,1,1,1,1,1,0,1,1,1,0,1,1,1,1,1,1,0,1,1,1,0,1,1,1,1,1,1,1,0,1,1,1,0,1,0,0,1,1,0,0,1,1,1,0,0,0,1,1,0,1,0,1,1,1,1,0,1,1,0,1,1,1,1,1,0,1,1,1,1,1,0,1,1,1,1,1,0,1,1,1,0,1,0,1,0,1,1,0,1,0,0,1,1,1,1,1,0,0,1,1,1,1,1,0,1,1,1,1,1,1,1,1,1,0,1,0,1,1,0,1,1,0,0,1,0,1,1,0,0,0,1,0,0,1,0,1,1,0,0,1,0,1,0,0,1,0,1,1,0,0,0,1,1,1,1,1,1,0,0,0,0,0,1,1,1,1,0,0,0,1,1,1,0,1,1,0,0,1,1,0,1,1,1,0,0,1,0,0,1,1,0,1,1,1,0,1,1,1,1,1,0,1,1,1,0,1,0,1,1,1,0,0,0,1,1,1,1,0,0,1,1,1,1,1,0,0,1,0,0,1,1,1,1,1,1,0,1,1,0,0,1,0,1,0,0,1,1,0,1,0,1,1,1,1,0,0,1,1,0,1,1,1,1,0,0,1,0,1,0,1,0,1,0,1,1,1,0,1,0,0,0,0,1,1,1,0,1,0,0,1,1,0,1,1,0,0,1,0,0,1,1,1,1,0,0,0,0,1,1,0,0,1,0,1,0,0,1,0,0,1,0,0,1,0,0,0,1,1,0,1,0,1,1,0,0,0,1,1,1,0,0,1,1,1,1,1,0,1,1,1,1,0,0,0,1,1,1,1,0,1,1,1,1,1,0,0,1,0,1,1,0,0,1,0,0,0,1,1,0,1,1,0,1,0,0,1,1,0,1,0,0,1,1,0,1,0,0,0,1,1,1,1,1,0,0,0,1,0,1,1,1,1,1,0,1,1,0,1,1,1,1,0,1,1,0,1,0,0,1,1,0,1,0,0,1,1,0,0,1,1,1,1,1,0,1,1,1,0,0,1,1,1,1,0,1,1,1,0,0,1,1,1,1,1,1,1,1,1,1,1,1,1,1,1,1,1,1,1,1,0,1,1,1,0,1,1,1,1,1,1,0,1,0,0,1,1,1,1,1,0,0,1,1,1,1,1,0,1,1,1,1,1,1,1,1,0,0,1,1,0,0,1,1,1,1,0,1,1,1,1,1,1,1,0
Charge	0,1,1,0,1,0,1,1,0,0,1,1,0,0,0,1,1,1,0,1,0,0,1,1,0,1,-1,1,1,1,1,0,1,1,-1,0,1,1,1,0,1,1,1,0,1,1,-1,0,0,0,0,0,0,0,0,0,1,-1,0,0,0,1,-1,0,-1,0,1,1,0,1,0,-1,-1,0,1,0,0,0,1,0,-1,1,0,1,-1,0,-1,1,1,1,1,0,-1,0,0,0,-1,0,1,0,0,0,0,-1,0,0,-1,1,-1,0,0,0,0,1,0,-1,0,1,0,1,0,0,1,0,0,0,1,1,0,0,0,0,-1,0,1,1,0,0,-1,0,0,-1,0,0,0,-1,0,0,-1,0,1,-1,0,0,0,0,1,0,0,0,0,-1,-1,0,0,0,0,0,0,0,1,1,0,0,0,0,0,0,1,0,-1,0,0,0,1,-1,0,0,-1,0,0,0,0,0,0,1,1,-1,0,0,0,0,0,0,1,0,0,0,1,0,1,-1,1,0,1,0,0,1,1,0,1,0,1,1,0,0,0,0,0,1,0,-1,0,0,0,0,1,-1,0,0,0,1,0,0,0,0,0,0,-1,0,0,0,1,0,0,1,0,0,0,0,0,0,0,0,0,0,1,0,0,0,0,0,0,0,1,0,-1,0,0,0,0,0,0,0,0,0,0,0,0,1,0,0,0,0,0,0,0,-1,1,0,0,0,0,0,-1,0,0,0,0,0,0,0,0,0,0,0,0,0,0,0,0,0,1,0,0,0,0,0,-1,0,0,1,0,0,-1,0,0,0,0,0,0,0,0,0,-1,0,1,0,0,0,0,1,0,0,0,0,0,0,1,0,0,0,-1,0,0,0,0,0,0,0,1,1,0,0,1,0,1,0,0,0,0,0,0,-1,0,0,0,1,0,0,0,0,-1,0,0,0,0,0,0,0,0,0,0,1,0,0,0,0,0,0,0,0,0,0,0,0,-1,0,0,0,0,-1,0,1,0,0,0,0,0,-1,-1,0,-1,1,0,0,0,0,0,0,1,0,0,1,0,0,1,0,0,0,0,0,0,0,0,0,0,0,0,0,0,0,0,0,-1,-1,1,-1,0,1,-1,-1,0,0,1,1,1,-1,1,1,0,-1,-1,1,-1,-1,-1,1,-1,0,-1,0,-1,0,0,-1,-1,-1,0,-1,-1,0,0,0,0,0,0,0,0,-1,-1,0,0,-1,0,0,0,-1,-1,0,0,0,0,-1,0,0,0,1,0,0,0,0,-1,1,0,0,-1,-1,-1,-1,0,0,-1,0,0,0,-1,0,0
pNuLoCProb	0.94834656
pNuLoCRegion	20...60;72...107;489...492
pNuLoCScore	0.30440469000000003,0.282548094,0.2647564663636364,0.25149010000000005,0.24033045076923082,0.23165838892857146,0.22520562766666669,0.21887528343750004,0.21242954411764708,0.19268902176470593,0.17730292564705882,0.15749333094117646,0.13876557976470588,0.12607849329411766,0.119614878,0.12058886976470588,0.12788684447058823,0.13687655505882354,0.14855601035294116,0.1607775968235294,0.17287907682352943,0.18514076623529416,0.19621168476470588,0.20524560241176476,0.2276616447647059,0.24918158505882354,0.27290828388235294,0.29867409352941177,0.3234368664705882,0.34601855294117656,0.36641021294117654,0.3880231517647059,0.40765110470588245,0.42728453882352946,0.4458404029411765,0.4627665423529412,0.48193312117647064,0.501833651764706,0.5270179882352942,0.5552262235294119,0.5853903311764705,0.6035840876470588,0.6242681641176471,0.6432477964705882,0.6619257494117647,0.6814175752941176,0.7019775905882354,0.7211331494117648,0.739952025882353,0.7584141905882353,0.7771639317647059,0.7955274235294117,0.812847575882353,0.8275965700000001,0.8408794823529412,0.8487802435294118,0.8562877552941177,0.8629074164705882,0.8685412829411763,0.873102418235294,0.8770522252941175,0.8805544723529412,0.8836770405882353,0.8865065923529413,0.8895110747058824,0.8927164982352941,0.8952391217647059,0.8976550058823529,0.9001845376470587,0.902943318235294,0.9053781747058823,0.9075117182352941,0.9096075123529411,0.9095302652941176,0.9095536123529412,0.9097532576470587,0.9103415264705882,0.9108875258823529,0.9114699229411763,0.912152664117647,0.9126754558823529,0.9130321770588234,0.9133326852941177,0.9136611852941177,0.9140108482352942,0.9143749776470589,0.914654183529412,0.9150201664705885,0.9162394158823532,0.9171376488235297,0.9178548547058827,0.9185181741176474,0.919298203529412,0.9200796200000001,0.9208606300000002,0.9216350841176472,0.9224840194117647,0.9233296976470589,0.9241937858823529,0.9250231635294118,0.9258892194117647,0.926682807647059,0.9274132629411765,0.928066015882353,0.9286283294117649,0.9283462152941178,0.9283241876470589,0.9285050794117647,0.9286871541176471,0.928782375882353,0.9288348847058824,0.9288598711764706,0.92886392,0.9288261988235293,0.9287984235294118,0.9287475552941175,0.9287250635294116,0.9286797547058822,0.9286200605882351,0.9285572699999999,0.9279454435294118,0.927427682352941,0.9268143529411762,0.9265020247058824,0.9264045464705885,0.9264382123529413,0.9264770111764706,0.9264979288235294,0.9265380376470587,0.9265392552941175,0.9265866447058823,0.9266835335294117,0.9267942335294117,0.9269300629411764,0.9270754482352941,0.9272424894117648,0.9274187776470588,0.9281999352941176,0.9289596435294117,0.9298625935294118,0.930469031764706,0.9308477564705884,0.93107931,0.9313285011764706,0.9315964305882352,0.9318584864705882,0.9321476394117647,0.9323622594117646,0.9325382499999999,0.9326670794117646,0.9327634911764706,0.9328500470588236,0.9331169294117646,0.9334119941176471,0.9337592394117648,0.9340915235294118,0.9343397070588236,0.9345309305882353,0.9347142570588236,0.9349061941176471,0.9350908529411766,0.9352745176470587,0.9354342352941177,0.9355676058823529,0.9356836547058822,0.9357933605882351,0.9359119429411763,0.9359910341176471,0.9359370341176472,0.9357452282352943,0.9355147364705884,0.9352267129411765,0.9349558641176471,0.9347716929411766,0.9346312147058824,0.9344931029411765,0.9343372129411764,0.9341935070588234,0.9340495070588235,0.9339269835294116,0.9338385658823529,0.9337932405882353,0.933736852352941,0.9336908564705881,0.9338630770588237,0.9339901005882354,0.9340524064705882,0.9340997182352941,0.934088935882353,0.934119322352941,0.9341700070588237,0.9342249588235294,0.9342912747058824,0.9343652788235295,0.9344254611764705,0.93447662,0.9345312199999999,0.9345786964705882,0.9346234729411765,0.9346895317647058,0.9347422864705882,0.9346117435294117,0.9346339652941176,0.9346810829411764,0.9347446952941176,0.9348385364705881,0.9348601935294116,0.9348362323529411,0.9347853688235296,0.9347041205882354,0.9346064041176472,0.9344919747058824,0.9343680217647059,0.9342362511764707,0.9340956570588236,0.9339400488235294,0.93341669,0.9332005517647058,0.933015835882353,0.9329769317647059,0.9329539964705882,0.9329608794117648,0.9330072970588236,0.9331067635294118,0.9332492852941177,0.9333754611764705,0.9334545052941177,0.9334872982352942,0.9335311888235295,0.933601635882353,0.9336700064705883,0.9337450888235294,0.9337850264705883,0.9341302852941178,0.9341437411764707,0.9341178705882355,0.933945117647059,0.9337243747058827,0.9334939041176472,0.9332545664705885,0.9329986064705883,0.9327335988235294,0.9324855629411766,0.9323120594117649,0.9321985982352942,0.9320989076470587,0.9319771782352939,0.9318728194117645,0.931907372352941,0.9319304252941176,0.9320040664705882,0.9319585076470589,0.9317582564705883,0.9313848482352941,0.9309825029411765,0.930548358235294,0.9300623629411765,0.9295248164705882,0.9288963929411764,0.9282821017647059,0.9276527011764706,0.9269630041176471,0.9261775335294119,0.9253818511764706,0.9245845805882353,0.923630521764706,0.9226994335294119,0.9217929629411765,0.9210610952941177,0.9205083229411765,0.9201203035294118,0.919746,0.9193565982352939,0.9190124270588235,0.9186951729411765,0.9184602082352942,0.9182325729411764,0.9179330299999999,0.9176224623529412,0.9173706652941176,0.9172089682352942,0.9170996623529412,0.9170771011764706,0.9169113247058823,0.9168707217647059,0.9169002576470588,0.9169570076470589,0.9170613823529413,0.9171924776470588,0.9174129147058824,0.9175914305882353,0.9178164729411765,0.9180307552941178,0.9182245758823531,0.9184482111764707,0.918674381764706,0.918982931764706,0.9192561841176472,0.919501921764706,0.9197113341176472,0.9201146635294117,0.9203482429411765,0.9205036688235292,0.9206317423529411,0.920803836470588,0.9210208270588233,0.9212249035294117,0.9214980294117645,0.9217644258823529,0.9220755576470586,0.9224369605882352,0.9228655076470589,0.9239767170588236,0.9250194952941176,0.9260435047058823,0.9270596170588234,0.9280585364705881,0.9290492952941175,0.930073542352941,0.9310606599999998,0.9320490305882351,0.9329832270588233,0.9338825505882353,0.9347253541176471,0.9355276188235294,0.9362879835294118,0.9370202105882353,0.9377283752941177,0.9384186282352943,0.9385051570588236,0.9386086235294119,0.9386859505882355,0.9387304300000001,0.9387585617647061,0.9387850417647059,0.9388131123529413,0.9388751476470589,0.9389263005882352,0.9389657982352941,0.9390048535294118,0.9390621794117647,0.9391225123529412,0.9391868123529412,0.9392348947058823,0.9390706511764705,0.9390082099999999,0.9389574658823528,0.9389347882352942,0.938942414117647,0.9389287817647058,0.9389151029411765,0.9388964817647059,0.9388767311764706,0.9388545052941177,0.9388433082352943,0.9388418100000002,0.938828605882353,0.9388078041176471,0.9387814688235295,0.9387236541176471,0.9386290070588237,0.9387479152941178,0.9387681917647059,0.9387755682352941,0.9387596223529412,0.9387248458823528,0.9387280723529412,0.9387375899999999,0.9387437958823529,0.9387466935294116,0.9387527805882352,0.9387423776470587,0.9387249641176469,0.9387202447058822,0.9387230876470588,0.9387345347058823,0.9388986823529413,0.9390995411764705,0.9392685235294117,0.9393952235294117,0.939466598235294,0.9395067711764705,0.9394792652941175,0.9394275829411765,0.9394053064705882,0.9393872494117647,0.9393720847058822,0.9393112117647057,0.9392297352941175,0.9391458117647057,0.9390528211764703,0.9389514858823528,0.9388221623529409,0.9385524352941175,0.9382589588235293,0.937979802352941,0.9377176199999999,0.9375139276470588,0.937336798235294,0.9372253188235294,0.9371181011764707,0.9369693188235294,0.9368211035294118,0.9366786647058823,0.9365835647058823,0.9365017176470589,0.9364175688235296,0.9363419311764707,0.9364739282352941,0.9366238576470589,0.9367029305882353,0.9367884247058823,0.9368812535294117,0.9370101611764705,0.9371500847058822,0.9372616352941175,0.9373788029411765,0.9375176817647057,0.9376598523529411,0.9378012447058823,0.9379269423529412,0.9380531305882355,0.9381969111764707,0.9383491952941178,0.9385061658823529,0.9384533629411765,0.938396415882353,0.9384029341176472,0.9384169929411766,0.9384412029411765,0.9384538952941177,0.9384428129411766,0.9384589064705883,0.9384694082352941,0.9384630970588235,0.9384524523529412,0.9384283405882352,0.9384140464705881,0.9383957017647058,0.9383690270588234,0.9383722582352941,0.9383885547058824,0.9384344782352942,0.9384492723529413,0.9384617888235295,0.938465825882353,0.9384865847058824,0.9385191552941177,0.9385731729411764,0.9386376758823528,0.938706868235294,0.9387931594117647,0.9388888805882352,0.9389898052941176,0.9390814052941175,0.9391541052941177,0.9392344205882353,0.9392881388235295,0.9393180152941177,0.9393344211764707,0.9393902605882353,0.939478503529412,0.9395949900000001,0.9396909429411764,0.9397717752941177,0.9398380835294117,0.9398892011764706,0.9399321423529413,0.9399580100000001,0.9399847041176472,0.9400205711764708,0.9400651688235295,0.940337395882353,0.9406503411764706,0.9409865505882352,0.9413205505882353,0.9416491799999999,0.9419896817647058,0.9423424076470587,0.9426796635294117,0.9430128811764705,0.9433445723529412,0.9436757523529411,0.94401257,0.9443575052941178,0.9447158964705883,0.9450719947058824,0.9454263064705882,0.9457809052941177,0.9459262405882354,0.9460242129411763,0.946091948235294,0.9461686835294116,0.9462461329411764,0.9463172888235294,0.9463773323529412,0.9464507688235294,0.9465246764705881,0.946597378235294,0.9466702135294116,0.9467409488235293,0.9468064017647059,0.946867884117647,0.9469284176470589,0.9470586858823531,0.9471845988235295,0.9473025247058824,0.9474136770588234,0.9475209182352942,0.9476241358823527,0.9477236099999999,0.9478177364705881,0.9479064694117648,0.9479900735294118,0.9480675247058824,0.9481419323529413,0.9482140558823531,0.9482846464705884,0.9483524288235294,0.9484172252941176,0.9484800582352941,0.9484699429411765,0.9484563158823529,0.9484430629411764,0.9484345305882352,0.948425871764706,0.9484151917647059,0.9484020741176472,0.9483901211764706,0.9483791582352941,0.9483700323529412,0.9483647147058825,0.9483603170588236,0.9483546900000001,0.9483493111764706,0.9483442194117647,0.9483522994117649,0.9483557700000002,0.9483623964705883,0.9483625905882356,0.9483636741176471,0.9483650850000002,0.948367484,0.9483716228571428,0.9483787784615385,0.9483860933333332,0.9483940172727272,0.9484019689999998,0.9484092099999999
pNuLoCDScore	-0.09197514588235295,-0.11171566823529411,-0.1271017643529412,-0.14691135905882358,-0.16563911023529415,-0.17832619670588237,-0.18478981200000005,-0.18381582023529414,-0.1765178455294118,-0.1456715389411765,-0.11620045601069526,-0.09071250317647064,-0.06745137394570139,-0.046517622693277305,-0.028993942901960806,-0.01362968102573528,0.015232100647058822,0.056492563294117615,0.09560535823529412,0.1411807625882353,0.18467128670588234,0.2199400596470589,0.24679533494117656,0.267434282,0.2797642602352942,0.2904079837647059,0.29728439258823536,0.3019889455294118,0.3090540443529412,0.31669288552941177,0.33080630347058837,0.3499806211176471,0.35772868641176464,0.3544025025882353,0.35135988023529413,0.3445737029411764,0.3384888829411765,0.33539902235294106,0.33556737764705885,0.33310999764705884,0.33230092117647053,0.3311296517647059,0.3313235288235294,0.33276088117647057,0.3309144547058824,0.32576291823529413,0.31386149411764697,0.29355401999999997,0.27089742411764717,0.2593233288235294,0.2442731188235292,0.22985462176470584,0.21512647588235279,0.19913689705882354,0.18169944999999987,0.1653734429411765,0.14955904882352944,0.13430230764705875,0.11807519,0.10212758235294117,0.08733696176470573,0.07534674823529386,0.06449869235294114,0.05873147470588225,0.053319757058823414,0.046622848823529406,0.041012329411764914,0.07162919281045751,0.07521169163398697,0.08340825633986929,0.09354425398692809,0.10835992692810456,0.12884476633986927,0.1457052022222223,0.15745533575163392,0.17032026398692804,0.17302236682352934,0.17278889828877,0.16851453975490194,0.1670821367873302,0.1727233312605041,0.17773169635294112,0.1805693008088235,0.18624591823529413,0.19655496647058812,0.20504884529411765,0.2106899417647058,0.21171073117647043,0.2064812252941175,0.20625817352941161,0.21140490764705888,0.21543559823529407,0.2188837005882352,0.2242253782352941,0.22755247117647065,0.23176389294117666,0.2307121000000001,0.22539943470588253,0.22306496058823533,0.2179916194117647,0.2096199488235294,0.1963234305882352,0.18196705176470584,0.16687627176470599,0.15194514411764704,0.13531135058823518,0.11782266352941173,-0.04638354052941174,-0.06156721023529413,-0.07370143229411769,-0.08435867641176473,-0.09060079994117648,-0.09594817782352942,-0.0999190745882353,-0.101703794,-0.10269016929411764,-0.09453193912941177,-0.08842391942245989,-0.08276210535294115,-0.0776123806877828,-0.0728357853277311,-0.06850180049803925,-0.06495284325735297,-0.058447012352941224,-0.04081870705882354,-0.026596637647058816,-0.013596033823529391,-0.004979785882352927,0.002880894352941185,0.009236409882352942,0.013782245470588247,0.017589247529411767,0.021410816705882366,0.025261510647058824,0.02897752417647058,0.032145275588235295,0.03555144288235296,0.03869924988235296,0.041897706294117654,0.041904922176470585,0.03866324835294119,0.03631697305882357,0.033645297764705887,0.03069926276470586,0.02768997011764704,0.02489418747058822,0.02201914805882349,0.019073214823529375,0.015888086294117587,0.012727930941176427,0.00966912623529409,0.006794239882352934,0.003761654058823505,0.000535655588235262,-0.0025908131764705855,-0.007158191294117641,-0.008105370117647073,-0.009745487470588274,-0.011039894529411787,-0.011669940705882356,-0.012787357823529397,-0.015532769235294105,-0.017490807411764703,-0.019635162705882322,-0.02145240417647054,-0.022783757705882313,-0.023748831588235264,-0.024694124352941174,-0.025673582058823516,-0.026821803529411742,-0.02751823023529411,-0.026792086235294096,-0.024732821882352915,-0.02218471776470586,-0.0193461380588235,-0.01769271776470585,-0.015580292117647054,-0.011346587647058815,-0.007038868588235284,-0.00354318823529412,-0.00024821411764706924,0.002155753882352937,0.004341718352941185,0.006403848176470592,0.008310759470588222,0.01038879799999999,0.012178942117647057,0.01423891382352939,0.014774621235294091,0.015124960647058816,0.014641802999999981,0.014945392999999974,0.015696702058823522,0.015438274647058825,0.013752971705882383,0.013118644294117646,0.012588441941176476,0.01245445335294118,0.01229905452941174,0.011697184411764691,0.011013153411764717,0.010243330705882348,0.009165972941176465,0.007799139352941187,0.005775215529411792,0.0037026684705882412,0.0019364349411764709,0.00025125399999999243,-0.0021191321176470546,-0.003966659411764717,-0.005045225294117689,-0.006136639764705895,-0.006792026529411757,-0.007454118647058819,-0.007764192764705857,-0.0071860009999999835,-0.006028576823529419,-0.0044066638235294026,-0.0028255958235294115,-0.002710047470588242,-0.001790099764705913,0.00021160647058822424,0.0036580105882352693,0.007150912705882348,0.011173357764705863,0.014534700941176482,0.01675417682352945,0.018448034823529427,0.01968611076470586,0.02070433611764705,0.021232733764705858,0.021581518823529405,0.02162052552941178,0.021423952294117643,0.0214271464117647,0.022726696411764682,0.0260319325294118,0.028078835705882377,0.027761268882352974,0.02566044182352946,0.023258047352941194,0.020978348529411772,0.019977511470588225,0.020075333235294104,0.019936751117647075,0.019809349058823505,0.019592616117647094,0.01923562847058824,0.018396567882352943,0.017014472000000003,0.015237736705882354,0.010944489058823559,0.005900217294117632,0.0007237825882352722,-0.0037079552941176597,-0.007118117647058858,-0.010332003235294068,-0.01318713764705881,-0.016693799117647054,-0.020860601470588228,-0.024864232647058823,-0.028045299705882334,-0.030758196176470617,-0.03328847205882356,-0.035645702647058825,-0.037717952058823515,-0.03923643147058822,-0.03798477176470587,-0.03535789,-0.033167153529411755,-0.031188472000000023,-0.028407240235294118,-0.025495713470588294,-0.02252892288235299,-0.01968014817647061,-0.016752048470588254,-0.013851136117647073,-0.01147012376470588,-0.009394556117647057,-0.00761238494117647,-0.005625321411764722,-0.0033201137647059092,-0.0009031720000000215,0.0009691429999999779,0.0011050921176470468,0.0017167421176470382,0.002375275294117671,0.0026535808235294,0.0022870367058823587,0.002378593470588261,0.00280304729411765,0.003346994647058857,0.003987404058823529,0.004693531705882367,0.005069169941176482,0.0055295505294117725,0.006020558176470597,0.006757987000000021,0.007282725529411782,0.008381364352941192,0.00918328347058825,0.009414728176470627,0.010302258176470597,0.011699611470588275,0.01367911264705883,0.015640749705882362,0.017041863235294136,0.01819013852941176,0.019196012058823528,0.02007532382352939,0.021396734999999986,0.023058597941176484,0.024371542058823553,0.025631643823529393,0.026484685882352935,0.02890582911764708,0.0294034273529412,0.030681734411764694,0.031654375,0.032635793823529394,0.033409650882352926,0.03373381911764703,0.034482876176470584,0.03526546029411767,0.0356917855882353,0.03579463852941184,0.035841613823529406,0.03562780323529413,0.035719324999999996,0.03584170970588238,0.03597423088235294,0.03432824470588233,0.03236962882352937,0.031548713529411715,0.03046136235294114,0.028780855294117613,0.026326440000000007,0.02358440411764709,0.020872722352941186,0.018113054705882314,0.015804547647058853,0.014155924705882283,0.012605677647058833,0.010888707058823471,0.00902441411764704,0.006756244117647026,0.0046897135294117764,0.0042992829411764855,0.005024373529411791,0.003663708235294161,0.0021766441176471196,0.0006414441176470775,-0.0016040229411764528,-0.0046979552941176506,-0.006610856470588261,-0.008119939999999992,-0.009620391176470594,-0.011127143529411743,-0.012578473529411771,-0.013559896470588195,-0.014232189999999978,-0.015103761176470554,-0.015730245882352945,-0.01770371882352942,-0.020908995882352954,-0.02248804529411763,-0.022767284117647113,-0.022396900000000025,-0.02018389058823533,-0.015320926470588248,-0.010411786470588241,-0.006961008235294108,-0.004059211176470595,-0.0017157852941176444,0.00022707235294119887,0.0012687023529411867,0.0020454605882352928,0.003198594117647058,0.004330904117647083,0.005169818823529404,0.005394920588235319,0.0047861905882352895,0.003559351764705926,0.0019369188235294488,-0.0001798311764705518,-0.004333773529411777,-0.010074409411764684,-0.015008220235294106,-0.019353899058823565,-0.023433574647058864,-0.02656854405882353,-0.029180967588235296,-0.03126362994117646,-0.033771834647058824,-0.036630468176470615,-0.039137469352941184,-0.038988564647058827,-0.036369701705882385,-0.03415636052941182,-0.03228997347058826,-0.030291349941176493,-0.027572217588235276,-0.024103952294117686,-0.020214199117647103,-0.01606364299999999,-0.011876941529411766,-0.008063118882352976,-0.0046165335882353,-0.0018396700588235448,0.001301758176470602,0.0049225970000000285,0.008928656411764685,0.012843429941176432,0.013739015823529432,0.014823919941176517,0.016889342882352942,0.018797036411764723,0.020505881705882356,0.021281309941176524,0.021691996411764752,0.021054772647058823,0.020177905588235318,0.01939633823529413,0.018930171176470584,0.018369997647058794,0.018058061176470575,0.01739800764705876,0.01578553941176472,0.013202858823529423,0.01079649000000002,0.008862855882352944,0.006125479411764723,0.003178102941176486,0.0002498952941176469,-0.0022789570588235553,-0.004113132352941223,-0.0051878511764705815,-0.0052554205882353044,-0.005557740000000033,-0.006125994705882348,-0.006422245882352934,-0.006738240000000034,-0.007007824117647055,-0.006016315294117669,-0.0038858882352940938,-0.0012531011764706224,0.0006308705882352994,0.002274698235294137,0.0036338394117646777,0.0053713470588235,0.007379242941176478,0.008740064705882372,0.010138355882352956,0.010815847647058868,0.011480710588235382,0.01258582411764711,0.013702078823529446,0.014496457647058841,0.015311148235294197,0.01497318647058829,0.01322518117647059,0.011245026470588282,0.009561788823529399,0.008675496470588212,0.008664171176470586,0.008966817647058839,0.009116744117647069,0.009723687647058832,0.010454981764705884,0.011206875294117624,0.012199851176470516,0.013311229999999924,0.014156658823529372,0.015262460000000005,0.016623011176470553,0.02286594411764703,0.03039311294117647,0.038611914705882294,0.046815438823529454,0.05429052588235295,0.061468048235294115,0.0679279041176471,0.0740620782352941,0.07946755588235294,0.08425766764705886,0.0890488970588236,0.09327012764705883,0.09704761705882353,0.10090030941176467,0.10478944941176471,0.10819706647058824,0.1066617305882353,0.017743808692810392,0.021347452810457468,0.025412703398692726,0.03345174163398695,0.044905821633986875,0.04582264633986921,0.04397039869281044,0.042119242810457536,0.04119867810457517,0.04072584858823536,0.04102447026737971,0.040995519460784224,0.04001351610859727,0.03855635180672268,0.03684062764705881,0.035208882242647066,0.03512976000000001,0.03365122705882356,0.03242896294117653,0.026571652352941122,0.01647593411764703,0.016805619411764727,0.0195985682352941,0.020694419411764642,0.019586219411764694,0.017346805882352934,0.013839405882352884,0.009614958823529363,0.0048400535294117475,0.001615351176470492,-0.0010415617647058784,-0.0024876541176470646,-0.003923572352941163,-0.006634495294117693,-0.011126142941176531,-0.014526697058823479,-0.016846981176470543,-0.018556267647058866,-0.02003101058823531,-0.019468186470588233,-0.016751747647058834,-0.014614065845588331,-0.013121415058823527,-0.010344614117646977,-0.005830041945701303,-0.0009228819117646503,0.002770015935828929,0.005703546000000004,0.0071173192156862575,0.007703130980392159,0.00935179215686277,0.0105706186274509,0.011532540980392136,0.011995317450980425,0.012529359215686264,0.012721839803921553,0.012034165686274467
pNuLoCRank	High
UniprotNLSRegion	
UniprotNESRegion	
SeqNLSRegion	
SeqNLSPMID	
nlsdbnes_region	
nlsdbnls_region	37...41;88...93
validnes_region	
nesbase_region	
Sequence	MKRPKLKKASKRMTCHKRYKIQKKVREHHRKLRKEAKKRGHKKPRKDPGVPNSAPFKEALLREAELRKQRLEELKQQQKLDRQKELEKKRKLETNPDIKPSNVEPMEKEFGLCKTENKAKSGKQNSKKLYCQELKKVIEASDVVLEVLDARDPLGCRCPQVEEAIVQSGQKKLVLILNKSDLVPKENLESWLNYLKKELPTVVFRASTKPKDKGKITKRVKAKKNAAPFRSEVCFGKEGLWKLLGGFQETCSKAIRVGVIGFPNVGKSSIINSLKQEQMCNVGVSMGLTRSMQVVPLDKQITIIDSPSFIVSPLNSSSALALRSPASIEVVKPMEAASAILSQADARQVVLKYTVPGYRNSLEFFTVLAQRRGMHQKGGIPNVEGAAKLLWSEWTGASLAYYCHPPTSWTPPPYFNESIVVDMKSGFNLEELEKNNAQSIRAIKGPHLANSILFQSSGLTNGIIEEKDIHEELPKRKERKQEEREDDKDSDQETVDEEVDENSSGMFAAEETGEALSEETTAGEQSTRSFILDKIIEEDDAYDFSTDYV
PTM	Acetylation:17,46,57,108,114,128,135,196,237,242,253,332,352,377,434,467;Methylation:75,88,135,179,196,230,275,332,352,434,475,534;Phosphorylation:53,273,318,342,490,494,517,529,548;SUMOylation:57,91,99,108,114,135,136,171,172,179,185,196,224,237,242,253,267,275,332,377,434,444,467,534;Ubiquitylation:57,75,99,114,128,135,171,179,197,237,253,267,275,299,332,377,434
